timestamp,emg1,emg2,emg3,emg4,emg5,emg6,emg7,emg8
1501624350365989,22,5,7,7,7,3,6,3
1501624350365989,-8,2,9,3,0,-9,-15,4
1501624350366959,13,11,67,11,5,7,7,11
1501624350366959,-33,-22,-10,-5,-5,-4,15,-19
1501624350367931,-11,33,25,5,0,-5,-30,-15
1501624350367931,5,-18,-26,-1,3,0,-5,-13
1501624350368961,-14,-13,-27,-14,-7,-7,6,-4
1501624350368961,19,38,37,5,1,-8,-11,13
1501624350378998,20,7,-6,-2,-2,8,8,5
1501624350378998,36,24,43,1,-3,-4,-2,10
1501624350387973,-17,-30,-49,-4,1,2,12,1
1501624350387973,13,-9,-47,-10,-3,-2,-45,-17
1501624350395957,-3,-14,-15,-6,-5,-3,24,21
1501624350395957,2,12,23,0,-5,-17,3,0
1501624350410020,-21,-18,-4,4,-4,1,-48,-16
1501624350410020,20,43,27,7,7,7,14,24
1501624350418135,-4,-33,-2,0,4,8,-10,5
1501624350418135,39,43,46,8,0,5,0,5
1501624350424082,14,44,24,10,-4,-16,-23,1
1501624350424082,7,-5,11,4,7,11,4,8
1501624350439141,-38,-49,-34,-2,-5,-4,5,-15
1501624350439141,-16,2,-4,-2,-3,-8,-22,7
1501624350448159,14,21,21,-1,4,14,52,28
1501624350448159,19,0,-21,-16,-15,-12,12,-10
1501624350487140,-6,3,31,8,0,5,-14,-3
1501624350487140,4,-1,-8,1,0,-6,-20,-12
1501624350488133,-3,5,22,-1,-2,1,6,-2
1501624350488133,12,-6,-73,-13,-6,-14,-34,-1
1501624350489135,-23,-39,-25,-3,4,6,16,8
1501624350489135,10,2,15,1,-2,-3,-18,-10
1501624350492133,14,21,15,6,-1,0,-10,-1
1501624350492133,-6,-15,-25,-2,1,4,13,-7
1501624350499193,-17,8,5,1,-4,-13,-34,-18
1501624350499193,-20,-50,-15,-5,-8,1,14,-2
1501624350506198,-15,9,-14,-7,-1,-7,-12,-17
1501624350506198,11,0,44,6,-2,-4,-33,14
1501624350515147,-3,12,-30,-5,-2,-9,0,7
1501624350515147,21,9,-7,-3,2,4,14,3
1501624350529216,-23,-39,1,4,3,12,3,7
1501624350529216,39,67,61,8,-3,2,12,12
1501624350538169,-2,12,3,-5,0,1,7,-2
1501624350538169,-13,9,9,1,0,0,40,1
1501624350544226,22,-14,-4,0,0,0,12,23
1501624350544226,-19,-18,-34,-11,-3,-2,4,-17
1501624350559207,21,-9,-3,-1,-6,-1,4,2
1501624350559207,17,28,1,-4,0,-7,-11,1
1501624350566212,3,10,45,10,1,1,1,-7
1501624350566212,-26,-20,-8,-3,-6,-6,6,-8
1501624350575217,-8,26,43,5,-1,-2,-31,-23
1501624350575217,9,-7,-25,-5,0,3,2,4
1501624350589207,32,24,4,2,-3,-3,-15,19
1501624350589207,14,22,31,8,1,-9,-17,-2
1501624350598214,-20,-47,-43,-9,-6,-4,12,-19
1501624350598214,-11,18,1,2,2,3,-15,11
1501624350604217,-1,-7,-19,-5,-1,-6,3,-3
1501624350604217,-44,-4,16,6,7,5,-10,-10
1501624350619281,40,28,-4,0,1,0,8,14
1501624350619281,-3,11,29,8,3,4,3,-2
1501624350626286,6,-6,-29,-10,-3,-3,3,-3
1501624350626286,14,-10,-17,1,0,3,6,9
1501624350635232,-18,-4,2,-3,-2,4,14,6
1501624350635232,-31,-2,15,6,2,7,-19,-21
1501624350649305,9,7,-50,-8,2,0,6,5
1501624350649305,-12,-10,17,6,6,4,16,4
1501624350658281,-6,-4,1,-1,-2,1,-10,-8
1501624350658281,-3,-15,10,2,-2,-2,20,12
1501624350664408,-30,-13,9,2,-1,-8,-15,-16
1501624350664408,-12,-7,-33,-16,0,6,-1,-14
1501624350679434,-36,-35,-24,-8,-1,0,3,-5
1501624350679434,14,24,7,-3,-1,-2,-7,-3
1501624350686384,-21,-21,17,4,-1,-3,-2,14
1501624350686384,27,-5,7,-1,-3,-4,-9,25
1501624350695387,23,27,7,-1,2,-4,1,7
1501624350695387,-3,-4,64,11,-3,-2,-14,-2
1501624350709428,-22,-5,-21,-14,-7,-18,-23,-29
1501624350709428,-5,-6,32,5,5,11,21,-3
1501624350718402,14,16,32,8,-2,5,10,15
1501624350718402,-23,-2,-45,-10,-3,-4,5,8
1501624350724440,24,18,-5,-1,-4,-9,-35,8
1501624350724440,-10,-16,-7,3,0,9,23,0
1501624350739446,-1,-10,13,-1,-1,6,-8,-13
1501624350739446,-26,-23,-48,-14,-7,-8,7,-6
1501624350746484,-5,9,12,4,-1,6,9,1
1501624350746484,-16,-23,-18,-7,-3,-2,-4,-14
1501624350755428,-2,7,-8,-4,-2,2,-5,-4
1501624350755428,36,2,1,1,2,6,18,6
1501624350769469,31,24,2,-2,3,-2,-2,10
1501624350769469,7,7,13,3,-3,-6,-14,8
1501624350778445,-1,2,0,6,5,2,-3,-1
1501624350778445,3,1,40,6,-5,-5,0,-4
1501624350784480,-12,-27,-78,-19,-5,-4,-23,-8
1501624350784480,2,26,22,8,6,3,26,12
1501624350799490,10,7,11,4,4,-1,-4,10
1501624350799490,-10,-4,-10,-3,0,-2,-21,-8
1501624350806526,-11,-11,23,8,0,6,22,-2
1501624350806526,-9,-13,-12,-4,-8,-6,-12,-15
1501624350815477,-28,-44,-3,-5,-3,5,21,2
1501624350815477,41,47,-6,-8,-7,-15,-24,28
1501624350829513,2,29,-30,-9,4,15,54,0
1501624350829513,-9,-4,-5,-4,-5,-22,-37,-3
1501624350837516,-1,-2,27,8,1,-2,1,-6
1501624350837516,-15,-22,10,-1,0,6,1,-9
1501624350852557,-19,-29,-24,-2,1,0,-9,-12
1501624350852557,30,16,-16,-7,-6,-8,2,-1
1501624350859533,0,7,-5,2,3,-7,-38,17
1501624350859533,-12,-20,-21,-3,4,9,19,-9
1501624350866568,3,21,19,1,-4,-6,-3,3
1501624350866568,-9,-1,28,7,5,8,16,-15
1501624350875544,21,1,-13,-5,-4,6,38,5
1501624350875544,-16,-26,-27,4,4,3,1,-9
1501624350888552,40,28,41,11,3,3,3,19
1501624350888552,-2,8,-10,-3,2,-2,-13,-8
1501624350897636,-6,3,7,-3,-4,-2,-7,-8
1501624350897636,8,2,-15,1,-4,0,-4,5
1501624350912735,-13,-31,-3,-5,1,5,24,-7
1501624350912735,-9,24,27,1,2,6,-25,1
1501624350918797,70,0,-3,1,2,0,0,11
1501624350918797,5,19,-11,1,3,-1,-6,10
1501624350926804,-23,-11,11,1,-1,-7,-11,-16
1501624350926804,12,-1,32,-1,-5,-3,2,14
1501624350935780,-27,-9,2,-1,5,1,32,-18
1501624350935780,-6,-37,-42,-14,-10,-17,7,2
1501624350948820,17,-11,-18,5,4,7,-10,4
1501624350948820,16,0,-12,-8,-6,-7,7,-2
1501624350957797,-8,-3,-6,0,8,5,3,-2
1501624350957797,5,5,11,-1,4,3,-9,-4
1501624350971805,-4,8,15,5,-6,-2,11,3
1501624350971805,12,-46,-52,-9,-7,-5,-3,4
1501624350978843,9,51,-15,-3,4,-5,-25,-7
1501624350978843,20,-1,21,5,8,12,6,22
1501624350986793,-28,-37,-27,-3,-6,-4,0,-15
1501624350986793,-4,-15,-31,-5,2,9,-12,-8
1501624350995823,0,0,12,-2,-10,-11,0,10
1501624350995823,-17,-4,9,-1,1,1,7,-10
1501624351008865,-25,-14,-21,-5,-4,-4,-22,-5
1501624351008865,4,0,-11,-2,-1,0,11,0
1501624351017840,-47,-49,-29,-5,-6,-10,28,-3
1501624351017840,27,50,-8,-4,2,1,-5,15
1501624351031882,8,3,47,7,-2,1,20,6
1501624351031882,3,9,-15,3,8,5,-20,4
1501624351038831,0,-13,-28,-7,-8,-8,-23,2
1501624351038831,-22,3,21,2,1,1,-10,-11
1501624351046889,24,15,16,-8,-1,3,-5,3
1501624351046889,-2,-9,-18,-1,-3,-6,1,-2
1501624351055836,-2,10,32,6,6,8,23,-5
1501624351055836,-26,-25,20,4,-3,0,12,1
1501624351068905,-3,19,-4,-4,-5,-11,-14,1
1501624351068905,-27,-15,34,9,0,3,12,-8
1501624351077867,9,-16,-10,-5,-8,-7,-31,-4
1501624351077867,3,23,30,6,-3,-9,20,-2
1501624351091899,12,19,-4,4,21,20,-15,11
1501624351091899,16,-3,18,5,0,2,5,10
1501624351098930,3,-10,-11,-8,-6,-4,10,2
1501624351098930,-37,-37,8,0,-3,2,-27,-28
1501624351106902,18,-3,-19,-10,-6,-5,3,14
1501624351106902,-6,28,4,-2,-3,-10,3,10
1501624351115909,30,41,47,12,6,16,5,7
1501624351115909,-3,-10,2,2,0,1,11,-11
1501624351128946,-9,-30,9,0,-5,-2,19,18
1501624351128946,3,-11,-24,1,8,14,13,7
1501624351137923,5,35,-27,-11,-7,-14,-21,-12
1501624351137923,7,-6,-20,-5,-6,-8,-7,4
1501624351151965,-6,19,36,5,-4,1,-3,-17
1501624351151965,-17,-12,-35,-9,-6,-2,-18,-9
1501624351158972,12,-13,23,9,6,3,-31,13
1501624351158972,13,16,-17,-7,-2,-5,0,-5
1501624351166947,-33,-38,4,4,1,6,-2,-4
1501624351166947,-6,4,-38,-4,4,2,8,-25
1501624351181957,-7,8,8,3,-3,0,33,11
1501624351181957,-6,-13,-23,-9,-2,0,11,3
1501624351189072,-7,-20,4,3,-5,-1,6,-15
1501624351189072,6,6,8,-8,-7,-12,-12,20
1501624351198080,-7,14,-9,-2,-1,-1,-3,-15
1501624351198080,6,-22,-37,-2,4,-2,-7,4
1501624351212201,4,42,57,7,-4,-4,-17,-17
1501624351212201,-3,-4,11,-3,-3,3,2,0
1501624351219184,-12,17,9,-2,-5,-12,-15,-14
1501624351219184,2,-7,28,3,-2,5,-32,22
1501624351226210,3,-15,-33,-1,4,-1,-8,0
1501624351226210,-31,-14,-11,-1,2,-1,3,-1
1501624351241230,29,-17,-10,-7,-6,0,-6,12
1501624351241230,-26,-1,-43,-5,-7,-21,-17,-28
1501624351249256,-15,-15,-31,-7,21,28,8,5
1501624351249256,39,22,27,7,-1,-3,-6,13
1501624351258233,-30,-19,9,3,-1,-1,13,-6
1501624351258233,3,-3,43,10,-3,3,0,-9
1501624351272222,3,1,-9,-5,-6,-9,9,-4
1501624351272222,-30,-25,-15,-7,-1,-4,-7,-16
1501624351280249,10,-8,41,7,-2,9,-18,0
1501624351280249,-10,42,-28,-11,0,-13,8,-15
1501624351286230,8,24,4,3,-2,-9,1,8
1501624351286230,1,15,28,4,-2,1,11,3
1501624351301295,-11,-18,10,1,3,-2,-6,-3
1501624351301295,10,-8,-4,0,8,16,-1,0
1501624351309300,-29,-33,-50,-17,-9,-8,41,-8
1501624351309300,-4,20,-2,-1,-4,-7,-3,-8
1501624351318276,-9,-7,-22,-6,3,-1,-21,-6
1501624351318276,-29,-56,-15,-2,-2,25,59,-19
1501624351332318,44,56,11,-2,-3,-4,-46,20
1501624351332318,-4,8,21,5,6,-3,7,9
1501624351339270,20,-2,-85,-16,-3,-1,11,-4
1501624351339270,10,31,35,5,1,-8,-21,0
1501624351346326,-19,-35,14,-1,-6,1,-2,-10
1501624351346326,2,-23,-1,1,-1,3,-10,-11
1501624351361339,-5,7,3,3,1,-1,-6,9
1501624351361339,-4,-6,-6,-3,0,6,-8,-6
1501624351369292,7,14,8,6,2,-2,27,2
1501624351369292,-6,4,21,1,0,6,-17,13
1501624351378319,-33,-51,-33,-7,-3,4,22,-3
1501624351378319,68,79,27,3,5,10,-22,27
1501624351392361,-24,21,18,0,4,-8,14,-12
1501624351392361,-7,27,13,1,-6,-14,-25,-8
1501624351399366,3,13,19,-1,3,-3,23,12
1501624351399366,-9,-44,-6,-5,-7,-3,2,-2
1501624351406350,-10,-14,-11,-2,-5,-7,-44,-7
1501624351406350,0,-15,-3,-2,0,8,22,0
1501624351421327,-11,-6,-11,-9,-6,-2,-17,-16
1501624351421327,27,7,6,1,-1,-8,3,7
1501624351429388,13,-4,2,-3,-5,-4,-32,-2
1501624351429388,4,-5,-11,-4,-3,-7,5,-11
1501624351438333,1,45,64,13,1,1,-9,5
1501624351438333,44,-4,19,16,9,1,14,38
1501624351452400,-16,-7,-21,-4,-2,-8,-11,2
1501624351452400,35,-14,-22,-8,-2,17,45,5
1501624351459407,9,19,-1,5,1,-9,-14,9
1501624351459407,-22,0,4,1,6,6,-4,-10
1501624351474420,2,-2,19,7,-1,1,3,-12
1501624351474420,-2,-14,15,6,3,-1,-21,4
1501624351481424,-11,-13,10,0,-3,-9,-7,-6
1501624351481424,-9,7,-22,-10,-10,-16,-11,-1
1501624351498380,-2,-8,-12,3,0,0,-8,-5
1501624351498380,5,18,3,4,-1,-3,-15,-3
1501624351499383,-14,-18,-17,-5,-6,-5,-2,-18
1501624351499383,-16,-7,9,-4,-9,-10,-23,-26
1501624351512447,9,8,-18,-7,-1,-5,23,14
1501624351512447,0,-18,-20,-3,-2,-3,-20,-20
1501624351519392,18,-32,-38,-10,-1,2,-19,12
1501624351519392,-9,39,10,-2,-2,-4,4,-4
1501624351534408,-17,-4,11,4,-1,-2,-9,-9
1501624351534408,13,7,-2,-8,-9,-6,11,-1
1501624351541467,-2,5,11,6,13,21,6,-8
1501624351541467,-15,-25,-47,-12,-4,1,17,8
1501624351558427,8,-7,5,-2,0,-2,23,9
1501624351558427,-19,-24,-24,-5,-7,-12,-9,2
1501624351559427,0,14,10,-2,-2,-1,12,-4
1501624351559427,-4,-17,-1,2,0,0,-2,1
1501624351572435,7,11,14,1,0,1,5,5
1501624351572435,3,-3,6,0,2,5,7,-5
1501624351579463,10,6,-12,-4,-6,-11,-4,0
1501624351579463,-7,-35,-26,-5,6,13,20,-1
1501624351594508,29,28,10,-2,1,11,-3,1
1501624351594508,0,47,20,7,6,-8,-8,5
1501624351601510,-5,-7,-6,1,4,4,9,10
1501624351601510,18,7,15,2,-3,-5,-4,0
1501624351617521,-26,-39,-10,-3,-6,3,1,-19
1501624351617521,12,-6,0,-1,2,8,18,23
1501624351619468,-4,-1,-14,0,-3,-4,1,-5
1501624351619468,-9,10,-15,-8,2,-1,17,-6
1501624351632533,-7,-35,-28,-5,-2,0,8,1
1501624351632533,5,23,32,0,-4,-8,-6,-6
1501624351639505,-40,-64,-28,4,-2,2,-5,-6
1501624351639505,14,25,9,1,3,5,-4,7
1501624351654493,-7,2,-2,1,6,7,3,7
1501624351654493,-21,-8,1,-4,0,2,3,-7
1501624351661552,6,13,17,4,-6,-5,14,-12
1501624351661552,13,15,26,7,3,5,0,15
1501624351677562,17,14,16,5,1,4,-9,7
1501624351677562,-21,-16,-19,-2,2,-1,0,-9
1501624351679510,28,27,21,1,6,2,-6,18
1501624351679510,2,-5,1,2,-2,-6,8,-3
1501624351691572,-28,-5,8,2,-1,0,-2,-16
1501624351691572,-11,1,10,4,3,2,2,0
1501624351700527,30,22,-8,8,5,0,5,15
1501624351700527,-16,-9,-11,-11,-5,-11,-31,-22
1501624351714590,5,-12,3,5,1,4,-9,-1
1501624351714590,-5,-4,13,3,0,3,12,-7
1501624351721541,-4,-4,-45,-7,-6,-10,-37,-7
1501624351721541,-45,-50,-25,-2,1,-9,-29,-2
1501624351737547,36,38,18,4,3,11,19,1
1501624351737547,-27,-40,-22,0,0,3,-1,-13
1501624351739556,37,24,-27,-13,1,6,5,17
1501624351739556,5,13,6,3,-1,-6,-2,1
1501624351751584,-14,-20,-26,-7,-6,-10,-5,4
1501624351751584,36,16,11,8,8,5,-5,15
1501624351760562,-10,-18,19,2,0,2,12,2
1501624351760562,24,14,-1,-4,-5,0,-6,15
1501624351774572,-5,10,7,-3,-4,-5,-1,-20
1501624351774572,-28,-35,-2,-5,-8,-5,22,-5
1501624351781577,-7,8,8,-2,4,6,-3,-2
1501624351781577,-46,-17,15,1,-6,-4,-4,-4
1501624351797589,15,11,17,-1,-7,-14,-19,-9
1501624351797589,61,21,-18,-5,-3,3,43,50
1501624351799590,-21,34,29,-5,-4,0,6,-26
1501624351799590,14,5,8,1,0,-1,-2,-5
1501624351811629,-15,-7,-19,-8,-5,-1,3,-1
1501624351811629,-12,11,17,-7,-8,-12,-25,-25
1501624351820639,-26,-15,-53,-14,-3,-4,-16,-7
1501624351820639,-6,5,23,8,0,1,6,-18
1501624351834644,-22,37,-2,-8,-1,-9,-1,3
1501624351834644,5,-8,-20,-12,-6,-11,-24,-10
1501624351841650,27,-4,33,6,-6,-3,9,19
1501624351841650,-15,2,-2,-4,-3,2,-4,-14
1501624351857660,9,-14,6,-3,-7,-6,-25,-3
1501624351857660,13,-4,-33,7,2,-5,-10,1
1501624351859634,-22,3,15,4,-3,-6,-18,-15
1501624351859634,7,14,-5,-2,-3,-8,-3,26
1501624351871648,3,-26,-36,0,-1,-2,-4,3
1501624351871648,-19,-6,14,3,0,18,-10,4
1501624351887656,33,14,20,7,1,-7,31,-3
1501624351887656,8,2,-8,-1,4,10,8,-7
1501624351894659,-3,21,24,3,-4,-12,22,8
1501624351894659,-43,-14,22,0,-5,-7,-5,-8
1501624351901664,19,3,-28,-5,-1,3,2,13
1501624351901664,-8,-11,-10,4,0,1,14,10
1501624351917675,-19,-16,6,2,6,2,3,-5
1501624351917675,-4,16,14,1,3,3,-17,-14
1501624351919677,-27,-7,17,3,1,5,7,-4
1501624351919677,38,41,8,-3,-3,-13,23,-11
1501624351931686,-3,-13,-13,-3,0,3,-34,-6
1501624351931686,-6,9,18,7,0,5,20,15
1501624351940692,-6,-28,-4,-8,-5,-5,-22,-4
1501624351940692,15,-36,-16,-3,-5,1,13,3
1501624351954709,15,33,28,-1,-2,-9,-35,-19
1501624351954709,-42,-15,5,2,0,1,-3,-25
1501624351961713,4,-12,-6,-6,-5,1,-1,-9
1501624351961713,-20,3,-10,-4,-4,-12,-24,-7
1501624351976745,24,-8,7,5,-1,-2,6,16
1501624351976745,34,18,25,4,5,8,14,6
1501624351983750,-3,-45,-41,-7,-4,-4,-3,-11
1501624351983750,28,-4,-3,-1,3,-4,7,20
1501624351991728,-17,-1,3,3,5,6,19,3
1501624351991728,-26,-7,-32,-10,-1,-5,-2,-13
1501624352000734,47,9,25,9,3,3,13,15
1501624352000734,-22,28,34,4,-1,10,49,-14
1501624352014802,2,-2,-7,-3,-3,-4,-4,-9
1501624352014802,8,-22,-44,-13,-3,-4,7,-2
1501624352021752,-18,13,-21,-6,-1,-3,-13,-4
1501624352021752,-12,-17,2,0,-1,-4,-20,-3
1501624352037767,10,-19,5,-2,1,9,2,-5
1501624352037767,4,46,0,-5,-8,3,7,1
1501624352039762,-24,-15,-4,-2,0,-1,-13,-8
1501624352039762,70,15,6,3,1,1,9,23
1501624352051829,-3,-9,-17,1,12,19,1,2
1501624352051829,29,10,2,1,-2,2,-8,0
1501624352060805,-17,5,-1,-1,-6,-6,-3,-17
1501624352060805,-28,-11,3,-3,-4,-2,-13,1
1501624352074844,-4,-23,0,3,3,12,-8,1
1501624352074844,35,48,6,-1,-2,-4,23,1
1501624352081820,11,21,19,13,3,7,11,4
1501624352081820,-42,-24,-8,-1,-2,-5,-28,-12
1501624352097861,-3,29,-7,-8,-5,-18,-7,1
1501624352097861,-15,-22,4,-2,0,4,-8,13
1501624352099834,-1,14,-4,-1,-1,2,15,10
1501624352099834,-24,-10,-12,-2,-3,-4,12,-14
1501624352111871,10,-25,-39,-4,-2,-6,10,22
1501624352111871,-11,-46,-48,-10,-4,3,-11,-9
1501624352120827,-1,20,20,1,0,-2,6,15
1501624352120827,-7,-4,7,2,-1,-3,-11,-8
1501624352134889,-12,-9,15,1,-4,-3,-18,-10
1501624352134889,24,18,7,1,1,-5,19,5
1501624352141894,-11,-8,-14,-1,0,-5,-27,-14
1501624352141894,18,8,-9,3,0,5,4,1
1501624352156849,-5,14,26,11,3,0,6,7
1501624352156849,-12,-9,1,6,3,5,1,1
1501624352163911,-4,-11,-4,-2,-3,-4,23,-3
1501624352163911,6,19,-3,-2,2,3,-9,8
1501624352171864,-38,-34,-17,-5,-10,-2,1,-27
1501624352171864,29,12,13,-5,-1,-5,-8,20
1501624352180891,17,33,28,5,10,6,10,5
1501624352180891,-3,23,7,-1,-1,-3,-6,2
1501624352194876,16,-3,-21,-3,0,3,13,6
1501624352194876,-18,-37,-58,-12,-3,-6,-15,-8
1501624352201936,3,-16,-3,1,-1,0,6,-5
1501624352201936,3,-24,-4,-8,-4,7,7,13
1501624352216951,10,49,26,2,0,-4,-35,-11
1501624352216951,-3,18,26,6,6,2,7,10
1501624352223955,-25,-6,-2,-1,0,-1,7,-10
1501624352223955,-9,-25,-24,-3,-3,-5,-26,-9
1501624352231961,-11,-24,-31,-9,-3,-3,11,15
1501624352231961,-11,-13,10,-5,-3,-3,-21,-22
1501624352241024,-3,19,4,-1,-2,-10,-12,0
1501624352241024,-9,-20,6,5,-2,-4,10,0
1501624352255031,-14,19,-1,2,1,4,-5,-8
1501624352255031,-19,-7,20,5,4,4,29,-6
1501624352262063,-33,-21,-39,-20,-12,-7,-21,-1
1501624352262063,24,17,3,-3,2,-1,4,9
1501624352277104,3,-34,-19,-3,1,8,9,6
1501624352277104,24,38,17,5,-1,-8,6,4
1501624352284111,6,8,49,7,-3,2,-7,-2
1501624352284111,-11,-21,-27,-5,2,4,-3,-3
1501624352300123,-6,2,-5,-8,-7,-6,41,-3
1501624352300123,-17,-36,-2,1,-3,3,-31,-9
1501624352302091,29,39,24,1,3,2,4,6
1501624352302091,-11,2,4,2,1,-2,-10,1
1501624352315126,6,-1,7,-1,0,1,7,-9
1501624352315126,14,7,-22,-2,-1,-7,20,18
1501624352321103,4,-7,9,-1,-4,-2,-16,-3
1501624352321103,-21,-19,1,4,3,6,-2,-13
1501624352337086,10,26,10,0,-5,-7,-4,12
1501624352337086,-9,1,14,6,6,7,13,-1
1501624352344153,-2,-6,-8,-4,-2,7,-13,7
1501624352344153,5,-26,1,-4,-5,-2,-16,3
1501624352360163,4,18,-1,1,0,-5,-2,-22
1501624352360163,38,11,-1,-3,-3,-11,-13,-5
1501624352362133,-22,-12,16,12,7,13,14,21
1501624352362133,14,-15,-17,-7,-2,-4,-5,-12
1501624352375172,8,-3,12,-2,-2,1,8,5
1501624352375172,-19,-26,-16,-4,-2,-1,-2,1
1501624352381178,11,-2,-1,3,1,-2,-1,6
1501624352381178,-2,13,14,1,-4,2,3,-5
1501624352397190,-8,-20,-35,-7,-3,-6,-4,-5
1501624352397190,-11,14,14,-4,-4,-13,-5,-22
1501624352404250,11,-9,-7,-2,-2,5,19,-16
1501624352404250,-7,4,-18,-5,-6,-9,9,6
1501624352420261,7,-13,12,2,1,7,-18,-3
1501624352420261,-2,-7,-6,-2,-3,0,-17,0
1501624352422258,10,-4,4,-1,-3,-3,17,-3
1501624352422258,0,30,23,2,2,-4,-4,-3
1501624352435278,8,4,6,1,-3,1,8,-1
1501624352435278,-11,2,5,-2,-4,-3,-3,8
1501624352441331,-12,10,4,7,-5,-8,-25,-13
1501624352441331,20,11,17,3,6,8,4,26
1501624352457342,-12,2,-8,-10,-9,-15,-4,-16
1501624352457342,20,31,13,7,2,0,-3,16
1501624352464347,-12,-28,-48,-10,-2,-6,7,-4
1501624352464347,9,5,11,3,-1,0,-26,-16
1501624352480359,1,-4,-13,-6,-4,-9,-6,3
1501624352480359,-6,-12,8,4,2,7,7,-3
1501624352482300,0,-2,-2,-6,-5,-5,7,-10
1501624352482300,2,1,-16,-2,-2,4,2,-2
1501624352494479,5,9,-1,1,0,1,1,5
1501624352494479,2,1,3,0,-3,-4,-11,-4
1501624352501482,-41,-25,-29,-7,0,-3,0,-2
1501624352501482,-35,-6,38,2,1,5,-13,-24
1501624352517494,-16,7,-13,-4,1,1,5,12
1501624352517494,-26,-23,-15,-4,-4,3,5,-4
1501624352524487,21,22,6,-4,0,-5,-17,0
1501624352524487,-5,-7,22,7,-5,-2,10,8
1501624352540513,-5,-23,4,7,5,8,-6,0
1501624352540513,-22,3,11,-1,-3,-7,-59,-20
1501624352542453,7,18,-4,-3,-1,-1,-11,-5
1501624352542453,31,2,-16,-1,3,1,-2,-5
1501624352554599,12,7,10,7,4,7,25,13
1501624352554599,-14,-15,-10,0,-2,1,38,-6
1501624352561638,-3,-3,22,-1,1,-3,-6,6
1501624352561638,-14,-3,-8,2,5,3,11,-6
1501624352577645,-3,4,-8,0,-1,-5,-29,-6
1501624352577645,34,-4,-11,-3,2,4,24,17
1501624352583734,-19,-7,35,8,0,1,-1,-11
1501624352583734,0,-16,-13,-10,-7,-6,12,3
1501624352600746,16,19,-4,-3,1,0,6,15
1501624352600746,-3,3,-4,-1,-2,-3,-20,-4
1501624352601717,4,-4,-19,-3,2,-3,-19,-7
1501624352601717,-1,-23,-17,1,1,8,8,7
1501624352614754,-39,-6,14,-1,-7,-14,-17,-10
1501624352614754,21,15,28,5,2,7,-15,2
1501624352621732,30,8,-34,-9,-1,-1,11,24
1501624352621732,5,8,-8,2,1,-3,9,3
1501624352636749,26,-22,-13,-2,-6,-3,-31,-8
1501624352636749,46,37,7,-4,0,2,41,45
1501624352643808,4,-6,27,9,-2,0,-11,-19
1501624352643808,-45,-32,-12,-10,-10,-12,-58,-22
1501624352660811,8,32,5,-3,1,0,32,17
1501624352660811,-14,-30,-22,-6,-6,-15,-32,-21
1501624352661760,-9,-19,-12,-6,-4,5,25,-6
1501624352661760,31,30,2,2,-3,-4,18,11
1501624352674829,-3,-6,23,0,1,-1,-33,-2
1501624352674829,10,4,-7,1,-1,3,11,-15
1501624352681833,4,6,-27,-4,3,-4,0,5
1501624352681833,-14,-9,-5,2,2,3,-5,15
1501624352697790,-3,-13,-4,3,4,5,10,6
1501624352697790,-21,-18,-19,-4,-2,2,32,4
1501624352703795,-6,20,15,7,9,6,3,-11
1501624352703795,-10,-7,-1,0,4,9,8,3
1501624352720808,41,-2,14,4,1,-2,2,18
1501624352720808,-24,-7,4,2,2,0,-27,-3
1501624352721813,-46,-29,4,-2,-4,1,32,3
1501624352721813,17,18,2,-7,-4,-19,-20,-7
1501624352734870,-18,5,-14,-3,-7,0,18,-5
1501624352734870,-36,-1,-1,0,13,14,-26,-15
1501624352741876,-1,1,9,2,-4,-5,-2,7
1501624352741876,13,12,-11,-8,-3,-7,16,-1
1501624352756889,-25,-21,11,3,-6,-7,-12,-5
1501624352756889,-2,-5,-5,0,-2,-4,33,3
1501624352763863,40,21,-1,0,1,14,19,6
1501624352763863,-47,-21,-13,1,4,7,28,-2
1501624352780845,-1,9,-5,-3,-1,0,-12,-20
1501624352780845,32,-9,4,0,-1,6,22,-9
1501624352781846,1,4,-1,-8,-5,-14,-13,5
1501624352781846,-10,-11,-12,-2,0,2,-6,-24
1501624352793913,-12,8,2,-4,-3,-5,10,-5
1501624352793913,-20,-19,-8,1,0,1,-20,-1
1501624352802860,2,15,4,-1,-7,-11,-10,-8
1501624352802860,3,2,4,2,3,6,6,10
1501624352816931,21,7,-20,-3,1,2,10,5
1501624352816931,8,13,6,1,1,-6,-35,-7
1501624352823904,-23,-21,-6,-3,0,3,8,-4
1501624352823904,10,27,-3,4,1,-4,-16,-7
1501624352840888,-8,-16,3,2,2,1,10,0
1501624352840888,-18,-9,-18,-10,-11,-12,-25,-16
1501624352841889,9,18,-6,-3,-2,-4,-10,9
1501624352841889,-13,2,6,-3,-2,0,2,-1
1501624352853897,-1,-7,-23,1,2,3,-6,-7
1501624352853897,-4,2,7,3,-1,-7,10,11
1501624352862933,26,6,15,8,4,5,-9,15
1501624352862933,-3,-7,6,-4,-6,-10,-18,-10
1501624352876974,-14,-24,-43,-6,0,0,30,-3
1501624352876974,0,10,9,2,9,14,-11,-1
1501624352883977,-15,-24,-8,-3,-6,-2,-12,-10
1501624352883977,35,31,38,7,-5,-15,-24,-16
1501624352900935,1,12,18,-2,8,12,46,-3
1501624352900935,-47,-73,-24,0,0,0,-37,-28
1501624352901959,22,28,-1,2,9,3,20,22
1501624352901959,6,2,6,2,1,7,34,9
1501624352914000,-16,-8,5,-1,-4,-9,-18,-6
1501624352914000,1,-11,-35,-6,-7,-8,19,-6
1501624352922954,-1,-15,7,3,3,16,-3,-14
1501624352922954,8,-13,-4,-2,-4,8,12,-12
1501624352936961,9,-9,8,0,3,5,24,11
1501624352936961,22,54,17,-7,-3,-11,6,9
1501624352944021,19,0,-1,0,-4,-7,-15,11
1501624352944021,3,0,-12,-1,4,1,1,3
1501624352960978,-10,-11,28,3,-5,-1,-10,-16
1501624352960978,2,8,15,3,-2,3,-1,16
1501624352962002,-3,13,3,-1,0,1,-24,-10
1501624352962002,10,-7,-8,-2,-1,-10,-17,10
1501624352974154,22,22,7,1,3,3,12,21
1501624352974154,-18,5,3,-4,-3,-4,-9,-10
1501624352983132,-9,-35,-5,4,3,-3,4,3
1501624352983132,-5,-3,7,-1,-2,6,-2,3
1501624352997281,0,6,8,2,-2,-5,-90,-4
1501624352997281,-5,-12,2,-3,3,6,26,11
1501624353004253,-18,-17,2,-2,-4,-4,-2,-13
1501624353004253,11,8,-9,-1,-1,2,5,1
1501624353020266,11,10,9,5,4,-2,1,11
1501624353020266,-6,15,27,4,-6,-19,15,8
1501624353022238,10,-17,-19,-2,6,12,-28,2
1501624353022238,-35,-4,11,3,3,3,-9,6
1501624353034248,0,10,-18,-7,-11,-8,8,-22
1501624353034248,17,8,-13,-12,-6,1,20,-16
1501624353043281,-10,-14,-6,-2,-5,-8,11,-10
1501624353043281,9,10,-4,-2,-1,-6,-14,11
1501624353057324,-8,0,15,1,-1,9,-3,-8
1501624353057324,15,12,1,7,1,0,-1,11
1501624353064329,-16,8,-3,-1,1,-7,7,1
1501624353064329,-7,-17,-11,-4,2,14,0,-8
1501624353080310,-16,-14,22,4,0,-2,9,-3
1501624353080310,12,-7,-2,1,-1,-2,4,19
1501624353086288,-6,-1,-39,-9,1,5,-22,-20
1501624353086288,-25,18,0,0,-6,-9,-8,-3
1501624353094349,8,4,-7,0,6,3,-5,1
1501624353094349,-8,-6,7,-1,1,6,15,-1
1501624353103323,-2,-5,11,1,-6,-6,12,7
1501624353103323,-14,-29,-7,2,3,5,5,-17
1501624353117365,41,1,-16,-3,0,-2,-22,19
1501624353117365,16,16,5,4,0,-5,0,-8
1501624353124313,4,8,6,2,2,1,12,1
1501624353124313,19,11,27,3,-4,-5,28,13
1501624353139380,4,-50,-42,-3,-5,-7,7,-23
1501624353139380,10,50,1,-4,6,16,9,15
1501624353146330,-5,44,32,6,-2,2,20,-1
1501624353146330,2,-4,-1,-5,-5,-13,1,-4
1501624353154360,-14,-16,-16,-4,-1,2,3,-2
1501624353154360,5,-22,3,3,-4,-2,1,7
1501624353169348,16,1,-12,-7,0,-1,5,-8
1501624353169348,-16,-3,14,1,-3,0,-22,-3
1501624353177406,3,-10,-15,-2,-4,-2,9,8
1501624353177406,-16,9,-8,-2,3,-2,-26,-24
1501624353184412,-35,-10,9,0,-1,-8,-29,-7
1501624353184412,28,-11,-16,2,6,14,20,10
1501624353199363,-18,10,34,2,1,-1,17,8
1501624353199363,-15,-20,-8,-8,-7,-5,-6,-14
1501624353206369,2,7,-22,-7,2,-6,17,23
1501624353206369,18,7,1,2,-2,0,-28,-12
1501624353214403,-15,7,0,0,0,0,7,1
1501624353214403,23,-3,-8,1,-5,-3,-11,13
1501624353223383,-4,-9,4,1,-6,-3,6,-10
1501624353223383,-11,-2,-31,-9,-2,-2,4,-1
1501624353237419,-9,-9,13,4,2,3,-20,1
1501624353237419,6,10,-14,-1,-1,-17,-19,-9
1501624353244425,0,-7,8,2,7,18,-8,15
1501624353244425,20,-2,-4,-3,0,0,-4,1
1501624353259435,0,10,8,-2,-6,-7,-15,-2
1501624353259435,-8,3,37,6,-2,-1,-10,-6
1501624353266440,10,-4,-48,-8,-3,-11,11,-13
1501624353266440,-42,-50,-20,-7,-5,-9,-65,-15
1501624353283452,-13,14,-3,-5,-2,-5,-3,-4
1501624353283452,10,-1,-8,-3,2,2,0,-2
1501624353284428,-14,-3,27,5,-1,5,15,12
1501624353284428,-33,-1,-7,-9,-6,-9,9,-8
1501624353297462,-12,6,6,8,1,-7,-6,6
1501624353297462,-2,1,14,0,8,11,2,4
1501624353304439,30,5,-2,-1,-5,-5,-19,10
1501624353304439,14,17,2,3,3,-2,15,19
1501624353327485,-23,4,12,1,-3,-3,16,-11
1501624353327485,15,-2,-15,-5,-3,-2,28,20
1501624353329486,-26,-28,-21,-1,5,1,-11,-19
1501624353329486,6,6,-10,-9,-10,-10,13,6
1501624353342496,0,7,-24,-10,1,0,6,4
1501624353342496,-11,-12,13,4,9,19,-14,-5
1501624353344467,-34,-32,-18,-12,-14,-12,-20,-18
1501624353344467,74,20,-8,1,5,10,39,-1
1501624353357505,13,12,17,4,-1,2,-31,-6
1501624353357505,-7,8,-16,-6,-5,-9,-12,-17
1501624353364510,1,-24,11,2,-3,-2,20,22
1501624353364510,-12,6,-4,0,11,9,-22,-4
1501624353379521,-6,17,-9,-6,-4,-6,10,-3
1501624353379521,8,-6,-2,4,-1,-8,-2,3
1501624353386529,-4,10,28,11,-2,0,-4,-8
1501624353386529,-23,-25,-18,-7,-14,-12,-2,-3
1501624353402537,55,3,0,1,4,13,-2,8
1501624353402537,5,12,3,-3,-3,3,-22,4
1501624353404513,-8,3,-8,-8,-2,-10,-4,-8
1501624353404513,-10,1,3,1,-2,-1,16,5
1501624353417548,-8,-6,32,3,-2,2,-26,-3
1501624353417548,-5,-18,-51,-12,-7,-10,9,7
1501624353424532,6,-2,3,2,-1,-1,-3,-1
1501624353424532,-27,21,26,5,8,14,-3,-3
1501624353439539,-11,7,-1,-1,12,10,14,-14
1501624353439539,-2,-6,-5,5,2,-1,15,5
1501624353446569,-3,-14,-4,1,1,3,-5,4
1501624353446569,-29,-4,-13,-4,0,-7,-11,-18
1501624353462580,-9,-10,-10,-3,0,6,21,-7
1501624353462580,-1,-9,-11,-9,-3,-9,-18,15
1501624353464552,22,16,14,2,3,1,-10,3
1501624353464552,-31,-20,6,-2,-5,-4,44,9
1501624353477591,-4,-30,-21,-3,7,8,-35,-6
1501624353477591,-13,13,3,-1,-6,-2,0,-12
1501624353483595,7,20,4,-1,0,-4,3,-1
1501624353483595,37,8,20,10,0,-8,-53,12
1501624353499606,-19,-22,-6,-6,-9,3,53,5
1501624353499606,-18,-16,1,1,2,-1,-7,-14
1501624353506611,-26,7,-9,-3,0,1,1,0
1501624353506611,32,19,3,0,-3,-8,-26,-8
1501624353522622,14,8,4,3,-3,-8,10,14
1501624353522622,22,-4,6,0,-3,2,10,9
1501624353524600,-23,-21,5,-1,-1,1,13,0
1501624353524600,13,18,-15,-3,-3,-2,23,-11
1501624353537619,4,5,9,4,12,16,-1,3
1501624353537619,-47,-25,-11,-4,-3,-1,23,-11
1501624353543639,30,12,-6,-4,-2,-2,-24,5
1501624353543639,0,-2,-3,7,3,-1,4,14
