timestamp,emg1,emg2,emg3,emg4,emg5,emg6,emg7,emg8
1501625251402176,2,-13,1,1,-2,-14,0,-12
1501625251402176,-5,14,-9,-1,-3,11,7,8
1501625251407151,-4,8,0,2,1,6,3,2
1501625251407151,2,-6,6,3,11,8,8,-14
1501625251408159,3,-14,-1,-2,-6,-5,-21,14
1501625251408159,0,12,-6,-4,-9,-14,1,-15
1501625251409180,-3,9,-2,-1,-7,27,12,1
1501625251409180,-2,-13,3,-1,5,-38,-3,-4
1501625251422193,5,-13,2,-1,6,-38,-13,1
1501625251422193,1,7,-2,1,-6,62,19,3
1501625251430199,-3,10,-5,1,-8,-8,-8,6
1501625251430199,0,-9,4,0,2,-11,-5,-9
1501625251436230,-1,-10,0,1,2,-21,10,-1
1501625251436230,-3,4,-7,-2,-11,19,-4,5
1501625251451241,2,14,4,5,11,10,0,-9
1501625251451241,0,-7,2,-2,-4,-5,-8,9
1501625251460195,0,-7,-4,-2,-4,-22,-10,-5
1501625251460195,-2,8,-5,2,5,-14,-6,-11
1501625251466252,-8,-2,-3,-4,-4,9,0,1
1501625251466252,-3,-13,4,3,13,-22,11,-2
1501625251482236,4,3,-6,-10,-17,86,14,15
1501625251482236,2,0,1,-4,-12,-34,-2,2
1501625251489215,-7,-3,-4,-6,2,-3,2,-12
1501625251489215,-1,-2,1,0,-7,-35,-19,-1
1501625251529271,1,-6,-5,-1,8,26,3,8
1501625251529271,-3,16,-9,-3,-14,-15,2,-8
1501625251530238,-4,4,0,-1,-2,-8,-10,-6
1501625251530238,1,-15,5,-4,-2,-36,-1,-1
1501625251531238,2,-10,-2,2,6,33,17,3
1501625251531238,1,8,-4,-2,-6,4,-1,0
1501625251533301,-2,10,0,3,0,15,-1,8
1501625251533301,-3,-14,0,-4,3,-16,-8,-6
1501625251541278,4,-8,-1,-3,-12,-45,6,10
1501625251541278,1,8,-2,7,14,24,-22,2
1501625251548312,-5,4,-6,-5,-21,15,37,-7
1501625251548312,5,-3,6,-3,-5,-44,-7,16
1501625251556260,-2,-10,2,5,9,-27,-33,-15
1501625251556260,-4,6,-14,-5,-5,27,8,6
1501625251571301,-5,3,2,-1,-4,6,-9,-13
1501625251571301,0,-11,2,4,12,14,-8,1
1501625251579334,-2,-9,-6,-6,-11,-48,-22,-6
1501625251579334,-2,6,-2,-2,-6,-2,-5,-2
1501625251586321,2,1,-1,-3,2,35,-17,1
1501625251586321,0,-10,2,1,0,-31,3,4
1501625251601351,3,6,0,0,-8,-10,-17,-3
1501625251601351,-3,2,-3,-2,0,-34,-2,-10
1501625251608294,-1,0,2,0,3,-18,-6,3
1501625251608294,-1,-5,1,1,4,46,1,-1
1501625251616331,3,-4,1,4,2,-12,2,11
1501625251616331,-4,3,-4,-6,-20,-69,-6,1
1501625251631342,-1,1,0,3,11,3,-3,-1
1501625251631342,2,3,0,1,-1,21,3,-7
1501625251639344,-1,1,-1,-1,-9,-8,5,7
1501625251639344,-1,-1,-3,2,-7,19,4,-6
1501625251646351,-3,2,2,4,11,20,2,2
1501625251646351,1,-7,2,-6,-9,-8,-12,2
1501625251661392,0,0,-3,-1,9,-7,0,-4
1501625251661392,-1,6,1,-1,-9,-31,17,8
1501625251668399,2,-4,-2,-3,12,62,8,-8
1501625251668399,-4,-3,-1,-5,-17,-49,-5,-3
1501625251676373,1,3,0,-3,2,80,31,8
1501625251676373,0,0,-1,1,8,-19,-10,0
1501625251691352,0,-1,-2,-2,-4,-23,7,7
1501625251691352,-5,-7,-3,2,8,-6,5,-8
1501625251699421,-1,2,1,0,1,17,-16,-17
1501625251699421,-1,1,-1,0,4,77,15,4
1501625251705483,1,-7,0,1,0,-8,2,2
1501625251705483,0,2,2,-1,0,-22,-22,-9
1501625251721545,-2,-2,-6,-2,-8,25,0,4
1501625251721545,-3,-2,-5,-3,8,12,-11,-5
1501625251728551,-1,1,2,3,-4,-42,0,-5
1501625251728551,2,-3,1,1,6,21,-19,-2
1501625251735557,-4,-1,-3,-1,6,24,16,-8
1501625251735557,1,2,0,1,3,39,6,-2
1501625251750567,-2,-4,-4,-15,-23,-16,6,4
1501625251750567,-3,-6,2,5,-5,-8,0,-6
1501625251759514,6,9,4,5,6,-35,-13,5
1501625251759514,-3,2,-2,0,2,5,-2,-15
1501625251765579,-1,-2,1,-1,-7,-9,4,13
1501625251765579,-3,-2,-3,1,6,29,6,-6
1501625251781675,-1,-5,-2,-5,-12,-6,-11,2
1501625251781675,-1,-1,-3,-5,-1,-15,5,-3
1501625251788651,0,-2,1,5,9,3,-9,-9
1501625251788651,2,-2,-1,-3,0,43,13,5
1501625251795685,-3,-1,-2,2,4,-36,-5,-15
1501625251795685,1,-2,1,-2,0,49,11,8
1501625251810695,-3,-1,1,1,-1,13,-15,-7
1501625251810695,2,-2,0,3,17,6,11,0
1501625251819672,-1,0,-3,-7,-16,16,-1,1
1501625251819672,-3,-3,-3,1,-3,-21,3,0
1501625251825673,0,0,1,4,4,-53,-1,-2
1501625251825673,0,3,1,1,2,15,-1,0
1501625251841701,-1,2,-2,-2,-4,-53,15,-1
1501625251841701,-4,-3,0,-1,-7,10,-3,-14
1501625251848725,0,-7,-5,-4,2,14,9,17
1501625251848725,0,0,0,2,6,-12,-11,-7
1501625251855672,-1,-1,0,2,-3,-9,-5,1
1501625251855672,3,5,3,3,-5,29,2,1
1501625251870737,-2,1,-4,-4,2,-2,0,-7
1501625251870737,-3,-1,-1,-3,1,15,-6,-2
1501625251878744,-4,3,-2,0,4,0,14,-4
1501625251878744,2,-2,0,-4,-18,-55,-16,0
1501625251893749,3,-1,1,-3,0,15,-8,8
1501625251893749,-3,-4,-3,-6,-11,3,0,-6
1501625251901761,-3,-2,-2,-1,4,41,-8,-3
1501625251901761,-2,-1,0,-1,7,-2,4,10
1501625251908732,0,-3,-3,-4,-2,-28,-9,-8
1501625251908732,-1,-6,-3,-4,-16,-40,-9,8
1501625251915769,2,2,2,4,2,21,13,-2
1501625251915769,0,-2,-2,1,5,9,4,-6
1501625251939731,0,3,3,3,4,-14,1,-8
1501625251939731,-1,0,-2,-4,1,-10,2,3
1501625251940734,-1,2,-1,-3,-6,-13,-5,-5
1501625251940734,0,-1,-2,0,10,26,17,12
1501625251953767,-2,-5,1,0,-3,-18,-9,-4
1501625251953767,0,-2,2,6,13,-8,16,-5
1501625251961771,1,3,-2,1,0,-25,-22,1
1501625251961771,-2,-2,-2,-5,-13,-38,-2,-3
1501625251968795,1,2,1,5,0,29,-8,-1
1501625251968795,0,-3,-2,-7,6,-6,9,-5
1501625251975902,-4,-2,-2,-6,-10,-34,-9,1
1501625251975902,2,7,1,3,5,-1,0,3
1501625251990881,0,4,-1,-2,-4,-37,6,-6
1501625251990881,0,-3,-1,0,-5,0,-8,1
1501625251998945,-1,-4,-2,-4,-9,-13,-5,-4
1501625251998945,-1,-3,-2,0,-4,27,-7,-4
1501625252013060,-1,-4,0,-1,-4,31,-12,1
1501625252013060,-1,4,2,1,1,-9,-4,-4
1501625252022010,-1,-6,-3,-2,0,13,7,-7
1501625252022010,-1,-1,1,2,4,-16,-5,5
1501625252028072,1,-3,-1,-2,1,-11,15,0
1501625252028072,3,-1,4,2,-3,8,-14,7
1501625252036047,-3,3,-4,3,7,27,5,3
1501625252036047,-2,0,3,2,-2,-11,8,-1
1501625252051087,-2,-3,-4,-8,-7,-18,-7,-5
1501625252051087,-5,-3,0,2,-1,-47,-9,-3
1501625252059094,-2,-2,-4,-2,1,-4,-1,-4
1501625252059094,-1,0,-2,-3,1,-30,-6,5
1501625252073049,0,-6,0,1,8,10,0,-1
1501625252073049,-4,1,-2,-3,-16,-43,-9,-5
1501625252082063,-1,1,1,0,10,80,6,-1
1501625252082063,-2,1,-1,1,2,-2,-2,-3
1501625252088115,-1,-4,-2,-2,-6,-11,-10,1
1501625252088115,-3,-2,-1,0,6,19,3,-3
1501625252096121,1,3,1,2,9,17,7,-7
1501625252096121,2,3,-1,-3,-3,28,-5,1
1501625252111131,-1,-1,2,0,-2,2,10,-3
1501625252111131,3,-3,-1,-6,-16,14,-3,2
1501625252118137,-1,1,-2,1,0,-7,10,-14
1501625252118137,-4,-3,-5,-7,-8,3,0,-2
1501625252133148,-2,-5,-1,-1,-1,28,2,-2
1501625252133148,-3,-3,0,6,12,31,13,1
1501625252141092,1,2,1,1,-10,-47,-10,9
1501625252141092,-2,-2,-1,0,6,9,-6,11
1501625252148135,-3,-3,1,3,8,18,-19,-20
1501625252148135,-3,0,-3,0,6,21,3,3
1501625252164168,1,0,0,0,-2,10,2,1
1501625252164168,-1,0,-2,-2,-9,-10,4,-3
1501625252171172,-3,-7,-2,-5,-2,-22,3,5
1501625252171172,4,5,2,1,-3,-4,8,1
1501625252178180,-2,-5,-5,1,1,11,-4,2
1501625252178180,0,5,-1,-3,-7,-45,-12,-5
1501625252193168,-3,4,2,1,0,-2,-8,1
1501625252193168,0,-6,-2,-5,-7,-18,-7,-4
1501625252202140,-3,-1,-1,-2,-2,-27,-9,11
1501625252202140,-2,0,-1,3,8,44,7,-2
1501625252208168,3,-3,0,0,3,-2,21,9
1501625252208168,-1,3,-1,3,5,-7,-11,-4
1501625252224179,-2,-1,-2,-5,-11,16,9,0
1501625252224179,1,-3,-4,-4,3,-24,-19,0
1501625252231216,-1,-1,0,2,2,23,28,-1
1501625252231216,-2,-4,-2,2,3,15,-12,-6
1501625252238160,-2,2,-3,-3,-4,-25,-10,-5
1501625252238160,-1,0,1,-1,-3,-27,4,-5
1501625252253232,-1,0,0,-1,2,-15,1,4
1501625252253232,-2,-6,-3,-4,-9,-10,9,1
1501625252261177,1,3,0,5,-3,31,5,3
1501625252261177,-2,-8,-3,-3,2,10,1,-5
1501625252268183,1,5,-4,2,-10,-48,-21,-1
1501625252268183,-6,-7,-3,-1,9,86,4,-8
1501625252284193,7,17,9,4,2,-39,16,12
1501625252284193,0,6,-2,3,5,19,-2,-5
1501625252291227,-6,-9,-3,-3,-8,-30,-1,-5
1501625252291227,1,-1,-2,-4,-1,-45,-23,-4
1501625252298260,0,-4,-2,-1,1,-23,-2,-1
1501625252298260,-4,-1,0,-1,-6,-30,1,-3
1501625252313271,3,-2,-1,-1,5,58,5,-1
1501625252313271,-1,0,-1,-3,-11,-43,11,7
1501625252321277,-3,-1,1,1,3,3,1,2
1501625252321277,-1,1,-1,-1,-7,-26,-6,-5
1501625252328253,0,-3,0,-5,3,9,1,9
1501625252328253,-2,-3,-1,-2,-10,-50,-15,-8
1501625252344241,-1,-3,-3,-3,1,-3,10,2
1501625252344241,-3,-7,-5,-4,-6,7,-16,4
1501625252351295,2,2,5,4,2,32,3,2
1501625252351295,3,5,4,5,6,1,17,4
1501625252358246,-3,0,-3,-2,3,-18,-12,-12
1501625252358246,0,-1,1,-2,3,78,26,-4
1501625252373257,-1,-8,-2,0,5,-3,-8,16
1501625252373257,2,3,1,4,7,15,26,10
1501625252381320,-2,-3,0,-7,-10,-25,-21,-5
1501625252381320,-4,-2,-2,-5,-17,1,8,-6
1501625252388324,1,-2,1,2,5,22,-3,3
1501625252388324,1,0,0,-2,-1,22,-6,0
1501625252404336,-2,2,-3,-1,-6,-2,0,7
1501625252404336,2,1,3,3,3,-15,-2,1
1501625252411284,-1,-2,-3,-4,-13,-21,-9,-13
1501625252411284,2,-1,-1,2,7,36,14,14
1501625252418345,-4,-4,-3,-6,1,1,-12,-23
1501625252418345,-4,-5,-2,0,1,-17,-12,3
1501625252433357,0,1,-1,-2,-2,-39,-7,-10
1501625252433357,-2,-3,-1,-5,-3,-7,6,-4
1501625252441308,2,6,2,2,5,6,6,14
1501625252441308,-1,-3,-3,-3,-13,16,-8,-4
1501625252448318,0,-2,-3,0,2,-37,4,-4
1501625252448318,-4,-3,-2,-2,-1,12,20,-9
1501625252464322,0,-8,-4,-4,-15,-13,-6,9
1501625252464322,-1,0,1,0,16,-16,-9,6
1501625252471326,-2,-3,0,2,2,25,3,-3
1501625252471326,1,-1,-4,-4,1,-12,-5,5
1501625252478388,-1,5,-2,1,5,58,11,-4
1501625252478388,2,4,2,3,0,-5,12,-1
1501625252493400,-4,-4,0,-1,8,-12,-3,-1
1501625252493400,2,-3,0,-1,-2,-34,-8,5
1501625252501405,-4,-2,-2,1,3,-14,-13,-8
1501625252501405,2,1,1,-4,-10,17,1,-4
1501625252516359,2,1,1,1,10,-4,-1,14
1501625252516359,-4,-9,-2,-11,-18,-13,-8,-7
1501625252524392,-3,4,-1,3,7,-12,3,-5
1501625252524392,-4,-2,0,2,3,35,9,1
1501625252539424,-3,-4,-2,-1,-7,-21,7,-5
1501625252539424,4,7,2,3,4,-14,-11,10
1501625252539424,2,4,0,-4,-9,78,-2,0
1501625252539424,1,-3,-1,-3,2,-6,12,-3
1501625252553495,-1,-4,-2,-6,-11,-23,-15,-4
1501625252553495,2,-1,0,2,7,-6,1,1
1501625252561500,-3,-3,-2,2,5,-1,4,-8
1501625252561500,3,2,2,4,-3,15,5,8
1501625252575511,-2,-3,-3,-5,-7,6,0,-3
1501625252575511,0,-2,0,0,1,-1,-8,-6
1501625252584517,-3,0,-4,-5,-6,-35,-1,3
1501625252584517,-2,2,1,1,3,18,-5,-12
1501625252599498,-2,0,-1,1,-13,-21,-13,4
1501625252599498,-1,-5,-3,-1,8,19,3,-6
1501625252599498,1,1,-2,0,-2,-20,3,7
1501625252599498,0,2,-1,-2,2,23,-6,-5
1501625252613536,1,-2,0,-5,-4,0,-1,-4
1501625252613536,1,1,2,4,-1,5,-1,-2
1501625252621542,-2,0,0,2,8,6,-5,-6
1501625252621542,0,-1,-4,-5,-13,-62,6,10
1501625252635554,1,4,4,3,4,25,6,-5
1501625252635554,-5,-4,-5,-5,-8,29,7,1
1501625252644531,-2,-1,-2,-1,0,-41,-17,-7
1501625252644531,0,-3,0,-1,1,-28,-3,7
1501625252659539,-5,-5,-1,-4,-5,-2,-3,-5
1501625252659539,-1,0,0,-3,-3,-6,-4,-10
1501625252659539,-2,5,-1,6,6,-7,-14,-8
1501625252659539,-1,-4,-6,-2,-3,-40,19,8
1501625252673547,7,0,3,-1,14,61,-7,3
1501625252673547,-5,-4,-1,-2,-11,-33,-14,-10
1501625252681586,-2,1,-2,-3,-2,3,9,-8
1501625252681586,1,4,-1,1,-4,-22,-18,-2
1501625252695596,-2,-4,-4,-2,9,39,10,0
1501625252695596,1,-2,-1,2,-1,-13,9,4
1501625252704573,-1,-1,1,0,-2,50,11,8
1501625252704573,-4,0,-2,-1,3,5,-17,-14
1501625252719582,-4,-6,-2,-1,-7,-32,10,4
1501625252719582,1,8,0,2,6,23,-9,1
1501625252719582,-5,-5,0,-4,-9,10,9,-17
1501625252719582,-1,0,0,0,1,-1,-16,-1
1501625252733626,0,1,-2,-1,-2,-27,0,-2
1501625252733626,-5,-5,-3,-3,-1,-1,-13,-3
1501625252741567,0,1,-1,-3,-7,-24,-3,4
1501625252741567,-3,-4,-4,-3,3,14,7,-3
1501625252755608,4,3,3,2,-1,-1,-3,-3
1501625252755608,-2,-6,-8,-8,-11,17,-9,-1
1501625252764618,2,3,0,0,4,50,25,3
1501625252764618,-3,-2,1,-1,-1,-39,-13,-1
1501625252778770,-2,-7,-5,2,-8,-6,4,-2
1501625252778770,3,6,4,2,11,-11,-2,-9
1501625252779712,-2,0,-3,-3,-6,-28,-4,7
1501625252779712,-3,4,0,-4,1,2,9,-3
1501625252793721,-1,-4,-1,0,-12,4,-9,-3
1501625252793721,-3,-2,0,3,9,6,3,-6
1501625252801755,1,-1,-3,-4,-11,-2,-16,-2
1501625252801755,0,0,0,3,12,32,26,9
1501625252815766,-1,0,1,4,7,-20,-7,-6
1501625252815766,1,0,0,-2,-7,-20,-1,8
1501625252823742,-3,-6,-7,-2,-4,-42,-7,-2
1501625252823742,0,1,0,1,10,33,0,-5
1501625252838760,-1,-2,-1,-2,-3,-7,-5,4
1501625252838760,0,2,1,3,-4,-44,-5,-3
1501625252839758,0,1,0,6,14,78,30,-1
1501625252839758,2,-2,2,0,-2,-33,-8,1
1501625252853794,-3,-2,-4,0,-4,-35,14,3
1501625252853794,-1,-6,-3,-1,0,11,-13,-3
1501625252861798,0,2,1,-1,-3,-15,2,6
1501625252861798,0,0,2,3,7,36,-3,-5
1501625252875787,1,1,0,0,-3,-4,0,-2
1501625252875787,-2,-3,-3,-3,-4,-13,9,3
1501625252883792,1,-2,-1,-3,-2,-36,-4,2
1501625252883792,0,2,1,5,2,20,-7,-1
1501625252898803,-5,-7,-3,-2,3,4,-6,-6
1501625252898803,1,5,-1,-3,-1,-9,-15,-7
1501625252899803,-2,-3,-2,-1,-7,-6,1,13
1501625252899803,2,4,0,-2,-5,-18,6,-1
1501625252913810,-2,1,-2,-2,-4,-3,-17,-10
1501625252913810,-5,-6,-1,2,3,-20,0,0
1501625252921819,-3,0,-4,-6,-5,56,-15,-7
1501625252921819,0,-5,-5,-7,-14,21,16,2
1501625252935829,1,-3,-2,-2,6,-4,0,-1
1501625252935829,-2,-3,-3,2,-11,19,7,6
1501625252943833,-2,0,-1,-1,2,-17,-20,3
1501625252943833,-5,-1,-2,1,1,5,-10,-3
1501625252958839,-1,-1,-1,-4,1,20,10,-9
1501625252958839,2,-1,-1,-1,-4,30,-1,5
1501625252959839,0,2,0,1,-6,-21,7,7
1501625252959839,-2,3,0,-1,3,19,-6,-9
1501625252973849,0,3,1,-2,-4,15,5,-6
1501625252973849,-1,-4,-1,0,-1,-23,-8,3
1501625252981854,1,1,0,-1,1,20,11,-3
1501625252981854,0,-6,-2,-2,2,-9,-5,1
1501625252995865,-1,0,2,2,3,-7,-9,-2
1501625252995865,0,-1,-3,-2,1,16,19,2
1501625253003870,0,-2,1,-4,-6,0,-6,-3
1501625253003870,-5,-5,-1,0,-7,-1,4,-6
1501625253018881,1,0,-1,-2,-7,-32,0,9
1501625253018881,2,3,-2,-2,0,-11,-28,-4
1501625253019882,3,3,2,5,13,17,26,6
1501625253019882,-3,-3,-3,-5,-11,-2,-7,-14
1501625253032897,0,-5,-1,1,1,4,3,12
1501625253032897,-2,-3,-2,-5,-5,-6,0,-4
1501625253041897,-7,-3,-5,-6,-9,-16,4,-14
1501625253041897,1,0,4,2,5,-1,-12,12
1501625253055913,-3,-4,-3,-2,5,7,14,-2
1501625253055913,-2,-3,-1,1,-10,0,-18,-4
1501625253063942,-1,0,-2,-5,-3,-40,9,-1
1501625253063942,1,-2,-1,-3,-2,0,0,5
1501625253078980,-2,0,0,0,-1,24,-7,-3
1501625253078980,-2,2,-2,-1,10,3,0,-15
1501625253079941,-1,-2,-2,2,-6,-5,2,-3
1501625253079941,0,1,2,4,0,-19,-6,6
1501625253092961,0,-6,-4,-4,-4,-2,-18,-2
1501625253092961,0,-1,1,0,-10,-24,23,3
1501625253101978,-3,1,0,0,2,0,-11,-10
1501625253101978,2,1,1,5,14,20,15,11
1501625253116007,-2,-2,0,3,-1,-33,-9,-7
1501625253116007,0,-3,-5,-6,-6,-1,0,-2
1501625253123983,-2,-2,-2,-2,-6,39,-4,-6
1501625253123983,-2,-2,-1,-2,5,-1,12,-6
1501625253138024,1,-2,-3,0,3,-6,9,1
1501625253138024,-3,-2,-4,1,-5,5,3,3
1501625253147028,-3,2,-1,0,5,0,-18,4
1501625253147028,0,1,-3,-11,-17,-32,0,-2
1501625253153032,0,0,0,-6,-8,45,0,-2
1501625253153032,0,-3,1,1,6,-23,5,-1
1501625253161039,-2,-2,-1,2,-1,3,-19,-2
1501625253161039,1,1,3,3,6,-18,14,-5
1501625253176020,-2,-3,0,-1,-3,8,-28,4
1501625253176020,0,3,0,-1,6,26,17,7
1501625253184058,1,-1,-1,-2,-4,-26,-11,0
1501625253184058,-2,-5,-2,-1,-6,-7,-15,-7
1501625253198068,0,0,-1,1,-8,-40,2,1
1501625253198068,-4,-2,-3,-3,7,21,-10,-2
1501625253207043,2,0,-1,-1,3,4,-1,4
1501625253207043,-4,-3,-1,2,5,-11,-3,-9
1501625253213078,-1,0,-1,-5,-10,-7,0,0
1501625253213078,2,2,1,0,-1,8,0,10
1501625253222033,1,0,-2,-5,-7,-24,6,4
1501625253222033,-5,-6,-3,-1,5,8,-10,-3
1501625253236093,0,-4,0,-1,-4,8,-2,2
1501625253236093,-1,-3,-4,-4,-4,-16,-13,-1
1501625253244101,0,-2,1,5,13,68,3,-9
1501625253244101,3,2,1,-2,-3,5,5,3
1501625253267117,0,0,0,1,5,15,21,-1
1501625253267117,-6,-4,-4,0,2,5,-2,-2
1501625253268086,2,7,2,-2,-9,0,14,3
1501625253268086,-4,-4,0,-4,-7,-5,-20,-13
1501625253282067,0,-3,0,3,9,16,13,8
1501625253282067,0,-1,-1,3,-5,-36,-16,-1
1501625253282067,-4,-4,-1,-3,2,33,7,0
1501625253282067,2,-1,0,3,17,23,-5,2
1501625253296136,1,3,-2,-7,-18,-16,7,2
1501625253296136,2,1,2,7,-1,-21,-7,-3
1501625253304140,-3,1,-3,-7,0,-31,17,0
1501625253304140,1,0,1,2,-1,22,-10,-1
1501625253318152,-2,-3,-2,2,9,-43,-15,-10
1501625253318152,-3,0,-3,-4,-4,29,19,0
1501625253327103,-1,-5,-4,-2,-4,-16,-2,3
1501625253327103,-1,1,-1,-2,-8,-15,-8,-4
1501625253342114,-3,-3,-1,2,8,-10,2,0
1501625253342114,1,5,-1,-1,-7,-32,-11,-5
1501625253342114,3,-1,0,-2,-2,-2,5,6
1501625253342114,2,-3,0,-1,-2,1,4,-1
1501625253356120,-2,-1,-1,-4,-6,19,-19,-3
1501625253356120,1,0,-3,3,6,14,-2,1
1501625253364185,-1,4,-2,0,-14,-19,-3,3
1501625253364185,1,-3,2,2,5,32,18,15
1501625253378194,-3,-2,-2,0,2,-8,9,-11
1501625253378194,1,2,0,0,3,22,15,2
1501625253387146,0,-3,-1,1,7,1,-13,-8
1501625253387146,-2,0,-2,-4,-2,-34,9,3
1501625253401211,-2,-2,2,0,-1,15,-15,-8
1501625253401211,-2,0,-3,-1,-2,2,3,1
1501625253402181,-2,-1,0,2,4,29,-10,-1
1501625253402181,-1,-3,-1,-5,-8,-35,1,-2
1501625253416222,1,-2,0,-2,9,27,0,1
1501625253416222,0,4,-1,-2,-10,-13,9,-8
1501625253424171,1,-2,2,0,0,-38,-15,11
1501625253424171,-1,-3,-2,1,-7,6,6,-11
1501625253438184,-3,-1,-2,1,4,-19,1,1
1501625253438184,-3,-4,-5,-6,-8,-12,-1,-9
1501625253446242,-4,-3,1,2,8,30,10,-5
1501625253446242,1,-3,1,-3,2,2,4,5
1501625253461258,4,1,-1,-3,-9,-10,4,1
1501625253461258,1,3,-2,0,6,4,-9,7
1501625253462225,-2,-2,1,2,1,6,-2,-4
1501625253462225,-3,1,-2,0,-4,-14,-8,-4
1501625253476247,-3,0,-1,0,1,37,-2,-2
1501625253476247,1,-1,-2,-3,-2,-3,-1,7
1501625253484271,1,3,0,-1,0,-10,0,-9
1501625253484271,-3,-6,-1,-3,-1,0,-7,-7
1501625253498279,0,1,-3,0,6,-47,5,-1
1501625253498279,-1,-3,-2,-7,-19,56,21,3
1501625253506253,-1,0,1,0,2,-14,-2,-1
1501625253506253,-2,-4,1,3,6,-8,-11,-1
1501625253521295,-1,-2,2,-2,5,14,-6,-4
1501625253521295,-3,-2,-3,-3,-11,-40,-19,2
1501625253522237,-2,-3,-5,-5,-6,4,4,-2
1501625253522237,-3,-4,-1,-2,1,15,-13,-2
1501625253536305,0,3,2,-2,-17,-22,-14,-5
1501625253536305,0,9,3,3,9,5,17,-2
1501625253544312,2,0,0,0,-4,-46,0,-1
1501625253544312,-3,-6,-5,-5,-10,-18,3,-1
1501625253558290,2,-4,1,4,7,36,3,4
1501625253558290,1,2,-2,0,-4,-12,-7,4
1501625253566329,-3,-2,-3,-3,-4,7,1,-5
1501625253566329,0,-2,1,0,0,3,-15,6
1501625253581338,1,1,0,-2,1,-8,17,8
1501625253581338,-1,-2,-3,-2,0,1,8,4
1501625253582308,2,1,2,2,3,-10,-19,5
1501625253582308,0,0,-4,-1,3,9,-1,-2
1501625253596338,1,1,0,2,-8,-2,9,3
1501625253596338,-1,-2,-4,-6,1,16,-11,-7
1501625253604353,-2,-2,1,1,-1,-3,-12,-16
1501625253604353,-2,-2,1,2,4,-14,23,5
1501625253618365,2,-5,-2,-2,-1,10,0,4
1501625253618365,2,9,0,4,14,24,13,-2
1501625253626370,-2,1,-3,-8,-15,4,6,12
1501625253626370,1,-1,2,2,3,-13,-13,-1
1501625253641349,-4,-4,-5,-2,1,-9,-6,-4
1501625253641349,3,2,0,0,2,-24,-4,4
1501625253642351,-1,2,1,6,4,45,19,-4
1501625253642351,-1,-4,1,-1,0,0,-10,-4
1501625253656362,0,1,-1,-1,1,42,20,8
1501625253656362,2,3,1,5,-11,-48,-17,1
1501625253664399,-4,2,-5,-7,0,3,-3,-7
1501625253664399,-3,-5,0,-2,-7,13,-4,-7
1501625253678406,-1,-2,-1,3,5,-14,2,2
1501625253678406,-3,-3,-2,-1,7,2,-4,-6
1501625253686412,0,5,-1,5,1,-16,-3,6
1501625253686412,-1,-3,-2,-8,-16,24,8,4
1501625253701424,0,-3,1,-3,-3,-20,-11,-3
1501625253701424,-1,1,0,4,1,-8,4,-1
1501625253702394,-1,-2,-1,-2,0,-4,3,-1
1501625253702394,-1,0,0,-3,0,4,6,0
1501625253716374,0,-1,-4,-2,-2,-32,-11,-2
1501625253716374,-4,-3,-4,-3,-6,23,-3,-7
1501625253724408,-1,0,3,3,3,8,-1,-6
1501625253724408,2,2,2,2,2,-22,3,4
1501625253738402,-1,0,1,2,3,8,-5,-4
1501625253738402,-1,-5,-7,-3,0,16,2,4
1501625253746455,2,1,-1,2,8,-2,16,1
1501625253746455,-2,-2,0,-3,-7,16,-11,3
1501625253761464,-1,-5,-3,-9,-18,-48,-6,-1
1501625253761464,0,0,0,1,11,36,-11,0
1501625253762436,-3,-3,-1,-2,-6,-16,-8,0
1501625253762436,-2,0,0,-2,3,-9,6,-7
1501625253776421,-2,-2,-1,-2,3,-17,-10,-1
1501625253776421,0,2,-2,1,-1,11,10,-1
1501625253784479,-1,-2,-4,-1,0,-14,-5,4
1501625253784479,-1,-7,-2,-1,-2,-49,-6,-5
1501625253798489,2,1,3,6,7,36,0,8
1501625253798489,3,4,0,-3,0,3,5,2
1501625253806466,-3,3,0,1,2,9,-4,-7
1501625253806466,-3,-4,0,2,0,-16,-11,16
1501625253821456,-3,-4,-5,-1,4,-1,6,-8
1501625253821456,-1,-2,0,-3,-11,-3,-1,-3
1501625253822454,-1,-3,-1,-1,-4,-9,0,6
1501625253822454,1,0,2,-1,3,19,12,-4
1501625253836463,-2,0,2,5,4,-1,8,-7
1501625253836463,-2,2,-4,-1,6,-16,-26,-3
1501625253844524,4,-5,0,-8,-19,-7,1,11
1501625253844524,-2,1,-1,2,7,-4,5,-14
1501625253858503,-1,-1,-1,0,4,17,-1,3
1501625253858503,-2,2,-3,0,-4,2,12,-2
1501625253866538,-4,0,-1,2,5,2,-6,-5
1501625253866538,-1,-4,-2,-4,8,6,-4,-1
1501625253881549,-2,-4,-2,-4,-12,-31,-11,-5
1501625253881549,-3,-3,-5,-5,2,10,1,4
1501625253882507,-1,-2,-1,4,5,-8,13,-4
1501625253882507,0,3,1,0,-1,8,6,6
1501625253895529,-2,5,-1,-3,-3,4,-2,-1
1501625253895529,-1,4,-2,1,-10,17,2,-4
1501625253904536,-2,-2,0,2,5,-4,-8,1
1501625253904536,1,-3,1,0,0,-21,8,-4
1501625253918578,-1,-5,-3,-5,-6,39,0,10
1501625253918578,1,-1,-3,0,-2,-29,-2,0
1501625253926582,1,0,-1,-4,5,26,6,3
1501625253926582,-3,-4,-1,-4,-9,-13,-8,-12
1501625253941570,2,2,2,2,5,3,-18,0
1501625253941570,-1,3,1,0,0,9,2,-5
1501625253942541,-3,0,-3,1,-5,-6,-7,-1
1501625253942541,0,-6,-2,1,9,-1,0,2
1501625253955562,-3,-4,0,2,-4,6,10,0
1501625253955562,0,0,0,-6,-12,-3,-3,5
1501625253964550,-2,-2,-1,-3,-9,-33,-12,-20
1501625253964550,2,1,2,-2,-6,6,11,16
1501625253978589,-2,-2,-4,-1,5,-28,1,-6
1501625253978589,-2,-3,-1,3,0,3,-6,-1
1501625253986593,-2,2,0,3,5,7,7,5
1501625253986593,-2,-7,-2,-6,-10,-9,-10,-8
1501625254001582,-2,-1,-3,-6,-7,2,-2,0
1501625254001582,-2,3,-2,-1,0,-9,4,0
1501625254002582,-2,-2,-3,-4,-1,11,-10,-4
1501625254002582,3,3,1,5,8,11,1,-1
1501625254015646,-1,0,0,-1,-5,1,-4,-4
1501625254015646,1,1,-3,0,-2,7,0,1
1501625254024593,-3,2,-1,-4,-3,-31,-10,-4
1501625254024593,1,-4,0,0,5,44,1,10
1501625254038639,-1,-3,-1,-2,-4,-7,-7,-1
1501625254038639,1,2,-1,2,-2,5,-1,-6
1501625254046670,1,-1,-3,-3,0,-1,3,3
1501625254046670,-4,-7,0,-2,-16,-7,-11,-6
1501625254060677,0,-2,-2,-4,2,2,8,-6
1501625254060677,-4,-5,-4,2,10,-7,6,-5
1501625254069624,1,2,4,0,-1,24,3,4
1501625254069624,-2,-2,0,-2,-2,1,5,3
1501625254075657,-1,-4,-4,1,5,-3,0,-5
1501625254075657,-1,4,-1,-2,-14,-5,-7,-1
1501625254083664,-1,-2,-2,-1,6,-5,9,-3
1501625254083664,0,-2,1,0,0,-11,-7,-3
1501625254098644,-1,0,2,4,11,-3,1,0
1501625254098644,-2,-3,-3,-5,-11,4,-4,-5
1501625254106650,1,-2,-1,1,-1,10,0,10
1501625254106650,1,0,-2,-3,2,-5,-4,-8
1501625254120689,1,-1,1,2,-2,-8,-8,5
1501625254120689,2,1,-1,-3,-2,-12,10,3
1501625254128665,-1,0,-1,0,-2,23,-7,-1
1501625254128665,-3,-1,1,2,3,8,14,-4
1501625254135699,-1,-3,-1,-1,2,-10,-7,-5
1501625254135699,1,1,-1,-3,-4,-2,2,2
1501625254143677,-4,-2,1,5,7,-8,-17,2
1501625254143677,0,-2,-2,-6,-15,-4,-1,0
1501625254158716,0,0,1,0,-3,-22,-2,-5
1501625254158716,-4,3,-1,0,1,11,4,7
1501625254166721,-3,1,-4,-1,-3,16,8,-11
1501625254166721,-2,-4,2,3,9,0,8,0
1501625254180732,0,-3,0,2,-5,-16,-2,8
1501625254180732,-3,1,2,2,-1,-14,-3,-9
1501625254188715,2,5,-1,-3,1,-5,1,-7
1501625254188715,-1,-5,-2,-2,-4,-10,-5,10
1501625254195713,-1,-1,-1,1,-2,10,7,-7
1501625254195713,-3,-2,-2,-1,8,2,-3,0
1501625254203747,-2,0,1,0,-9,-4,-5,0
1501625254203747,1,-1,-2,0,4,8,-3,-12
1501625254218760,-1,-2,-1,-5,-1,8,1,4
1501625254218760,0,1,0,0,-3,-13,1,-2
1501625254226764,-2,-3,-4,-9,-5,26,11,3
1501625254226764,0,-2,1,3,3,-15,-18,-1
1501625254240746,-2,-4,1,-6,-8,32,-9,3
1501625254240746,-3,1,-4,-3,6,9,3,-10
1501625254248751,0,-3,0,1,-6,-19,3,2
1501625254248751,2,5,1,3,7,-12,4,-2
1501625254264763,-1,-2,-2,-3,-2,-3,-5,5
1501625254264763,0,-2,-3,-1,0,-1,-9,3
1501625254265764,-1,-5,0,2,3,-25,0,-9
1501625254265764,-2,-4,-2,-4,-4,5,-28,3
1501625254278772,2,3,2,6,9,-1,18,4
1501625254278772,-1,1,-4,0,-1,0,-5,1
1501625254286806,-3,1,-1,1,8,-17,10,-1
1501625254286806,-3,-2,1,-3,-6,-15,-7,-5
1501625254300788,1,-1,-2,2,-1,2,-2,2
1501625254300788,-1,3,-2,-1,3,25,2,1
1501625254308793,0,3,-1,-4,-3,-7,-8,4
1501625254308793,-4,-6,-1,-5,-10,14,-2,-1
1501625254324805,0,-4,-3,-2,6,-18,8,-3
1501625254324805,1,0,1,2,-3,-9,-4,8
1501625254325806,-3,0,-3,-7,-19,4,-7,-4
1501625254325806,-4,-3,-1,1,10,25,-1,-2
1501625254338817,0,0,1,-2,-6,-11,10,-4
1501625254338817,0,0,0,-2,-3,0,-14,1
1501625254346820,1,-2,0,-1,1,4,7,3
1501625254346820,-2,-2,1,4,2,-18,0,-4
1501625254360830,-1,-1,-1,-2,-3,-3,-3,0
1501625254360830,0,-1,-2,0,-3,-2,17,1
1501625254368836,0,2,1,1,3,13,17,2
1501625254368836,-1,-3,-3,0,-10,-16,-9,-8
1501625254384847,-3,-3,-4,-3,0,4,-7,-3
1501625254384847,-1,5,-1,-3,7,15,-3,-6
1501625254385848,-2,-4,-2,-4,-4,-5,-1,-1
1501625254385848,3,-2,0,0,0,5,10,7
1501625254398856,-1,0,-1,-2,-3,-2,-18,-8
1501625254398856,-3,0,1,2,1,-9,8,-2
1501625254406862,-1,-2,-4,2,3,-1,-3,-2
1501625254406862,3,-1,1,-2,6,43,1,7
1501625254420873,-4,-8,-2,-4,-4,-17,-9,-14
1501625254420873,2,1,1,0,-6,24,-1,6
1501625254428878,0,-1,-1,-1,0,-1,-4,-1
1501625254428878,-4,-3,-1,-2,-2,-32,0,-11
1501625254443918,0,0,-1,3,8,56,-2,8
1501625254443918,-1,0,-1,0,2,-7,-4,6
1501625254444895,0,-2,-1,-7,-4,-1,10,3
1501625254444895,-1,-1,-1,-1,-3,-17,-9,1
