timestamp,emg1,emg2,emg3,emg4,emg5,emg6,emg7,emg8
1501623361406123,-2,-4,0,2,6,4,-10,-3
1501623361406123,-2,0,1,-5,-6,-5,3,-4
1501623361407091,-1,-4,-1,0,0,-4,-7,-2
1501623361407091,-5,-6,-7,-6,-9,-4,4,-2
1501623361408104,3,-5,-2,0,0,0,7,2
1501623361408104,1,11,4,1,3,4,-5,-1
1501623361409105,-1,4,1,0,1,-3,6,-1
1501623361409105,-5,-3,-2,0,-1,-12,0,-5
1501623361419158,3,9,4,2,-5,-2,-56,0
1501623361419158,1,-7,-3,-5,-7,3,2,1
1501623361429108,-1,1,-3,-2,0,0,11,-2
1501623361429108,2,4,6,4,6,6,-6,0
1501623361436126,-5,-5,-5,-3,2,-1,-6,-9
1501623361436126,-1,0,-5,-2,1,0,19,4
1501623361450138,-4,-3,2,0,-3,3,-20,-3
1501623361450138,-1,-4,-4,-2,0,-2,-9,-3
1501623361458164,-4,4,0,-3,-6,-6,-1,-10
1501623361458164,-1,-9,-2,1,3,5,4,-2
1501623361464188,6,8,1,-1,-6,-3,4,3
1501623361464188,-1,3,0,4,5,0,2,1
1501623361479142,3,0,-1,-1,-3,0,10,2
1501623361479142,4,9,7,6,1,-7,-16,-5
1501623361488201,0,-4,-3,-2,1,-6,-10,-1
1501623361488201,1,-3,1,1,0,1,-13,0
1501623361528191,1,-5,-2,-1,1,5,7,5
1501623361528191,-4,-3,-2,-2,-4,-9,-17,-3
1501623361528191,1,5,0,1,0,0,-13,-3
1501623361528191,0,5,6,5,0,1,3,-1
1501623361529178,-5,1,-3,-1,-4,-4,9,-1
1501623361529178,-1,-3,-6,-2,-2,-2,4,-2
1501623361532186,2,-6,-1,1,1,1,6,8
1501623361532186,-1,-3,0,-5,-2,-1,-6,-6
1501623361539218,2,7,4,6,-3,-6,-5,-10
1501623361539218,-2,-11,-5,-5,0,0,4,6
1501623361547279,-5,-8,-5,-4,-4,-8,-5,3
1501623361547279,-2,-2,0,-1,0,-2,-2,-8
1501623361556282,3,-4,-1,-2,2,-2,0,11
1501623361556282,4,0,0,2,5,-2,-35,-6
1501623361570378,-5,-5,-1,0,4,-2,-8,-7
1501623361570378,1,2,-1,-3,-9,-5,1,3
1501623361576443,-1,6,-3,-9,-10,-1,1,-1
1501623361576443,3,1,4,6,13,6,42,4
1501623361584470,-4,-8,0,-3,-8,9,-4,-2
1501623361584470,1,4,1,1,4,0,2,0
1501623361599478,0,-1,-1,-1,-1,2,8,3
1501623361599478,-4,1,-6,-7,-8,-1,6,-3
1501623361606490,1,3,2,2,3,2,12,-3
1501623361606490,-5,-17,-11,-8,-5,-10,-30,-2
1501623361615515,-8,-3,-1,-2,1,-7,-8,-3
1501623361615515,-4,-1,-4,-5,-10,4,-3,-2
1501623361630578,4,-3,-2,-2,3,8,26,9
1501623361630578,0,-1,-3,1,1,3,8,2
1501623361636638,2,1,3,5,7,2,17,6
1501623361636638,2,4,3,3,0,-1,-6,1
1501623361644679,0,0,0,0,-3,-4,13,1
1501623361644679,0,-9,-7,-4,-3,0,-2,3
1501623361659734,2,14,4,-2,1,9,27,-4
1501623361659734,-2,7,3,2,-2,-1,-12,-11
1501623361666741,0,-6,-8,-6,-6,-8,3,2
1501623361666741,-6,2,0,4,2,-4,-25,6
1501623361675690,2,-4,2,3,5,6,3,0
1501623361675690,-1,-4,1,1,2,0,-37,-1
1501623361689755,0,2,-2,-3,2,-1,4,-5
1501623361689755,-1,2,0,1,1,0,8,1
1501623361696740,-5,-15,-7,-4,-12,-1,7,-3
1501623361696740,-1,-5,4,3,7,4,-4,-2
1501623361704772,-1,12,6,5,3,-5,4,2
1501623361704772,1,2,2,-1,4,12,33,5
1501623361719779,-2,-5,-3,-2,-9,-21,-59,-10
1501623361719779,-2,-12,-10,-7,-1,4,32,7
1501623361726783,1,5,-1,2,-4,-8,-30,-6
1501623361726783,1,4,-1,-1,-1,1,18,-4
1501623361735747,3,2,-3,-1,4,1,-1,5
1501623361735747,-2,0,0,-3,-1,-5,-1,-4
1501623361749798,-4,-8,-8,-9,-15,-4,20,1
1501623361749798,4,14,2,2,5,-7,-34,-4
1501623361764812,-1,-3,1,-2,-9,0,13,-4
1501623361764812,1,4,0,-3,-11,0,10,7
1501623361765755,-4,-12,-3,1,6,4,-6,-5
1501623361765755,0,-3,2,0,-1,-6,-15,3
1501623361779820,-9,-12,-5,5,8,6,10,-5
1501623361779820,0,11,6,-1,0,-3,12,-1
1501623361786824,-4,1,0,0,-5,-7,-9,-1
1501623361786824,-4,-7,-4,-1,1,-1,-7,-4
1501623361795887,6,8,5,2,10,7,11,7
1501623361795887,-3,-4,-6,-6,-9,4,-4,-7
1501623361809950,0,0,6,5,4,-4,-15,-9
1501623361809950,1,1,-2,-3,0,8,75,7
1501623361816955,-3,-6,-6,-7,-2,-1,-21,-3
1501623361816955,6,8,2,4,6,1,4,1
1501623361823959,-4,-4,5,2,0,1,-5,0
1501623361823959,0,2,-3,-3,-4,-5,-4,-4
1501623361838936,-1,2,1,-3,-6,-4,16,4
1501623361838936,-3,-8,-6,-4,-1,1,5,2
1501623361846993,-3,-11,-7,-3,-5,-2,-18,-4
1501623361846993,-2,4,4,3,2,3,7,2
1501623361855981,2,2,3,0,-5,-4,-14,-3
1501623361855981,-3,2,-2,-1,3,-4,-18,-2
1501623361870047,6,17,4,-1,-6,3,7,4
1501623361870047,-1,3,3,1,3,5,-1,-2
1501623361877005,-3,-3,-6,1,0,-5,-23,-8
1501623361877005,2,-1,4,2,4,5,7,3
1501623361884007,-1,-4,-3,0,4,-1,-7,-5
1501623361884007,-1,-3,-5,-3,-2,-6,-20,1
1501623361901026,1,2,1,-1,1,1,-7,1
1501623361901026,-1,-7,-1,0,-3,-5,-1,-5
1501623361907032,-2,4,0,1,3,3,10,-3
1501623361907032,2,3,3,-4,-8,-4,-8,-3
1501623361924043,-1,2,-5,-3,-7,-6,8,4
1501623361924043,-1,2,0,1,7,4,7,3
1501623361930089,-2,-6,-1,-1,-3,-3,4,-4
1501623361930089,-3,0,-2,-1,-4,-6,-14,-5
1501623361937094,-4,-1,-2,-6,-2,4,-2,-6
1501623361937094,-1,-1,-2,2,-2,-8,-14,-3
1501623361953066,4,3,1,-2,-3,5,22,-1
1501623361953066,-3,-13,-11,-10,-8,-2,-29,-1
1501623361959054,0,-5,0,0,1,5,27,7
1501623361959054,-4,4,3,1,-7,-9,-15,-4
1501623361967079,-2,2,-2,-1,6,6,8,-1
1501623361967079,1,-9,-3,-1,12,16,44,9
1501623361976077,3,9,5,-1,-7,1,-11,-4
1501623361976077,-1,-4,-3,1,3,0,4,0
1501623361990090,2,-5,-3,0,-2,-3,-21,5
1501623361990090,-1,15,5,-1,-9,-9,-3,-2
1501623361998080,1,0,0,3,4,-7,5,7
1501623361998080,0,1,2,0,3,9,12,1
1501623362012131,0,-9,-5,-2,4,-3,-22,-4
1501623362012131,-2,-2,0,4,2,-1,-13,-8
1501623362019110,-1,-3,-6,-2,0,3,15,7
1501623362019110,-3,-7,-4,-1,-4,-8,-5,-6
1501623362027100,-4,-6,2,0,2,0,-4,-2
1501623362027100,-6,-7,-8,-5,-9,-6,-12,-8
1501623362043113,-6,-3,-6,-6,-1,-9,-25,-7
1501623362043113,5,5,6,3,-5,0,27,1
1501623362050116,0,-12,-11,-6,3,7,-2,4
1501623362050116,-1,6,5,5,-5,-2,-3,-3
1501623362057121,-4,1,2,2,-2,-6,-6,-4
1501623362057121,0,-5,-4,-3,4,4,-5,3
1501623362072132,0,4,0,-2,-3,-6,18,4
1501623362072132,-1,-6,-2,-6,-6,-5,-35,-1
1501623362087179,-1,-6,0,1,3,3,-10,-6
1501623362087179,-4,1,-4,-2,-7,-8,-7,-2
1501623362088159,0,8,1,-1,0,-1,0,-4
1501623362088159,4,8,2,2,3,3,9,2
1501623362096163,2,6,3,3,5,5,3,1
1501623362096163,-3,-5,-6,-6,-3,-2,-5,-1
1501623362110172,4,2,5,4,-3,1,-1,4
1501623362110172,-3,-4,-6,0,3,0,3,-3
1501623362117177,-1,-3,-1,1,1,2,-1,1
1501623362117177,0,-1,1,0,1,0,2,0
1501623362132175,-3,-1,-2,-3,-2,-3,-12,1
1501623362132175,1,-10,4,3,2,0,9,1
1501623362139180,-3,-9,-7,-7,-8,-1,25,6
1501623362139180,-5,0,0,-4,-4,-4,-28,-9
1501623362147185,1,9,12,8,3,0,9,2
1501623362147185,-4,-2,-5,-3,3,-2,14,-1
1501623362156248,1,0,0,-5,-8,-5,5,-2
1501623362156248,2,-3,1,5,17,5,-34,-4
1501623362170258,0,1,-7,-6,-15,-8,8,4
1501623362170258,0,-1,2,3,-1,0,-9,-4
1501623362177206,3,4,11,3,7,9,-3,-4
1501623362177206,3,1,-1,1,-1,-3,24,14
1501623362192274,1,9,0,2,2,-5,-22,-7
1501623362192274,-1,-4,3,4,8,6,30,-2
1501623362199244,-9,-13,-11,-10,-14,-4,-4,-10
1501623362199244,-2,7,3,-3,-6,-2,-25,-1
1501623362207334,-4,-11,-3,0,2,3,-8,-11
1501623362207334,-3,-2,-6,-6,-10,-10,-12,0
1501623362222330,5,1,4,4,10,5,-5,0
1501623362222330,-1,-3,-3,1,9,5,12,-6
1501623362230370,0,2,-3,-7,-20,-13,-1,-1
1501623362230370,-5,-6,-3,-2,5,10,12,-5
1501623362237337,2,6,0,1,1,-4,-2,2
1501623362237337,-7,-6,-8,-5,-10,-9,11,0
1501623362252333,-3,9,5,2,9,10,4,3
1501623362252333,0,-4,-1,-1,-5,-3,1,9
1501623362259393,-2,-3,-3,2,0,-6,-19,-6
1501623362259393,-1,-6,0,-1,-6,-3,-13,1
1501623362266355,-2,1,-5,-5,-1,1,51,6
1501623362266355,2,0,2,-1,-6,-6,-26,-5
1501623362281450,1,-1,-3,-2,2,5,4,0
1501623362281450,0,3,5,2,0,-2,7,2
1501623362290490,4,9,6,-2,-5,2,-36,-2
1501623362290490,4,7,3,-1,1,0,-3,0
1501623362296444,-6,-10,-10,-6,-5,-3,9,-4
1501623362296444,1,0,-1,0,6,2,6,3
1501623362312450,0,0,-1,1,3,-1,4,-7
1501623362312450,-5,3,5,5,4,1,-1,-1
1501623362319511,-3,-5,2,0,2,-3,-32,-10
1501623362319511,-1,4,-4,-5,-11,-3,-4,-4
1501623362326517,-5,-9,-7,-1,2,-4,-19,-7
1501623362326517,0,8,3,-3,-2,-3,-13,-3
1501623362341527,-1,-4,1,2,-3,-3,10,-1
1501623362341527,4,11,1,-1,0,0,-17,0
1501623362349531,1,-1,0,-4,-7,-4,-6,1
1501623362349531,-1,-6,0,3,6,1,-11,-7
1501623362358496,1,-2,-2,-3,-2,-2,-14,2
1501623362358496,-1,-3,1,-1,-3,1,9,-9
1501623362372549,-1,-2,1,-1,-4,-9,-22,1
1501623362372549,-4,-12,-7,-8,-7,1,1,2
1501623362379516,0,6,4,3,3,-1,12,6
1501623362379516,0,-6,1,1,-2,-3,6,-1
1501623362394508,0,10,-4,0,7,6,11,6
1501623362394508,4,12,9,7,1,-5,-5,5
1501623362401515,2,-1,1,-4,-5,1,-17,-3
1501623362401515,1,3,-2,-3,0,2,8,4
1501623362409521,-4,-8,-3,2,4,4,4,-2
1501623362409521,2,0,4,4,4,1,0,-3
1501623362419525,-1,6,1,0,4,1,7,3
1501623362419525,0,-8,-2,0,1,5,9,-1
1501623362432537,-3,-11,-7,-4,0,-4,-28,-9
1501623362432537,1,-9,-3,1,-1,3,-2,5
1501623362439598,6,24,10,0,-1,0,-6,-3
1501623362439598,-6,-4,-3,0,-3,-4,8,-1
1501623362446601,-2,-3,-3,-5,-5,-4,3,-3
1501623362446601,0,-3,-3,0,-2,-3,10,2
1501623362461555,-1,-2,-4,0,0,5,41,0
1501623362461555,1,-2,1,-2,-1,-1,-12,-4
1501623362469704,-5,0,-5,-3,4,8,6,2
1501623362469704,-3,-3,-9,-7,-5,0,14,-5
1501623362478664,-2,-9,0,2,-2,-9,-17,-3
1501623362478664,-5,-6,-3,-3,-2,3,6,2
1501623362492711,1,0,7,6,2,0,16,-2
1501623362492711,-3,-4,-2,-6,-1,6,11,-2
1501623362499665,-5,-3,-4,1,1,-3,-16,-3
1501623362499665,-4,0,1,1,1,-5,0,-4
1501623362514732,-1,-3,-1,-3,-7,-3,-7,-4
1501623362514732,-2,-3,-4,-5,-2,-3,4,2
1501623362521782,2,3,3,1,1,-3,-7,7
1501623362521782,1,6,1,-2,-6,2,14,5
1501623362538789,-1,-4,-3,2,2,-5,-12,-2
1501623362538789,-1,1,-1,-3,-2,3,11,-3
1501623362539775,-4,-5,-1,-1,0,1,-1,-5
1501623362539775,2,1,1,-1,-1,-3,-8,-2
1501623362552836,-3,2,-3,-4,-4,-2,-6,2
1501623362552836,1,-4,-1,-1,0,-3,-13,3
1501623362559822,3,5,2,-1,-4,7,10,2
1501623362559822,-4,-8,-8,-6,-3,-3,-7,-7
1501623362574857,2,6,7,7,9,7,7,2
1501623362574857,-5,2,1,1,-3,-12,-4,-4
1501623362581860,-2,-9,-5,0,4,2,-4,-1
1501623362581860,-3,0,0,-3,-5,-3,18,5
1501623362597871,1,0,0,2,2,5,-5,-3
1501623362597871,-2,1,-3,-2,-6,-5,1,-3
1501623362599836,-4,-1,-6,-2,-2,-12,-24,-8
1501623362599836,2,-2,-1,2,5,9,40,8
1501623362612847,-1,-3,-5,-6,-6,-4,-7,4
1501623362612847,3,19,9,1,-4,1,-13,0
1501623362626848,-3,-2,-3,-1,-1,-3,0,0
1501623362626848,4,3,1,5,7,8,12,3
1501623362634842,-4,-9,1,-1,-4,-7,-5,-5
1501623362634842,-3,-7,-2,3,0,-1,-9,-6
1501623362641858,1,4,2,0,9,2,19,1
1501623362641858,-2,-2,0,-2,-9,-6,-15,-2
1501623362657915,5,7,0,3,1,-1,7,6
1501623362657915,-4,-10,-1,-5,0,-5,-17,-5
1501623362659876,0,4,2,1,-1,2,-3,-3
1501623362659876,2,-1,-3,0,2,-2,-24,-5
1501623362672925,-2,-1,-6,-5,-4,-2,39,6
1501623362672925,-3,-1,-5,-3,-2,-5,4,-6
1501623362678928,-3,-11,-7,-5,-6,-2,-11,0
1501623362678928,-1,-3,2,2,3,-3,-14,0
1501623362695967,-1,-3,-3,-2,-4,-3,-4,-4
1501623362695967,0,4,-3,-5,-4,0,4,1
1501623362701984,2,0,1,-1,-1,1,8,-4
1501623362701984,-3,1,2,2,-1,-8,-22,-12
1501623362718120,0,2,3,-2,-1,3,-15,0
1501623362718120,2,-11,-6,0,-4,1,0,5
1501623362720072,0,3,-6,-2,-3,2,23,-1
1501623362720072,3,4,0,-2,0,-6,-25,-2
1501623362732130,2,-1,3,1,1,0,9,-2
1501623362732130,4,1,-2,-1,1,3,3,4
1501623362739079,-3,1,1,0,-8,-4,-3,1
1501623362739079,-3,-4,-3,-4,-3,-4,-7,-5
1501623362755103,-4,-4,-6,-3,-1,-2,-10,-4
1501623362755103,-2,-4,-2,-1,3,2,19,1
1501623362762097,-4,3,2,-3,-8,-7,-26,-4
1501623362762097,-1,8,2,0,-3,-1,-12,-2
1501623362778107,1,-3,-1,-1,0,5,21,4
1501623362778107,0,-7,-1,1,4,2,-6,-2
1501623362780110,-2,-3,1,0,3,1,-1,-2
1501623362780110,-2,-6,-3,-1,1,-1,2,5
1501623362792117,-3,1,-2,-5,-12,-4,-1,-5
1501623362792117,-4,1,0,0,-1,-4,-11,-3
1501623362799178,0,-3,0,0,0,-1,-2,-1
1501623362799178,-4,-7,-9,-5,-3,1,10,4
1501623362815191,2,0,3,6,9,2,5,3
1501623362815191,1,13,5,5,5,-3,-17,-4
1501623362822137,-2,-4,-5,-8,-13,6,47,3
1501623362822137,1,4,4,6,5,5,23,4
1501623362846185,3,7,0,-2,2,2,2,2
1501623362846185,-1,0,0,1,-1,-2,-19,-3
1501623362847155,1,-7,-7,-2,7,2,10,8
1501623362847155,-4,1,1,-4,0,0,2,-8
1501623362852174,1,-1,1,0,-16,-7,-15,-2
1501623362852174,-5,-3,-6,-3,-5,-1,29,0
1501623362859180,-2,-8,0,-1,5,4,-27,-4
1501623362859180,-2,-2,3,0,1,3,4,-3
1501623362875228,-2,-8,-1,0,1,-5,-20,-5
1501623362875228,-2,-2,-3,-4,-4,-2,-15,-5
1501623362889241,-1,1,-6,-4,-6,-9,-16,0
1501623362889241,5,-1,4,1,-2,1,-2,8
1501623362898248,-3,-2,0,1,5,-1,-5,-6
1501623362898248,-1,-1,0,1,2,2,7,-1
1501623362900250,0,-7,-2,-1,3,1,-2,7
1501623362900250,-3,-2,-3,-3,-3,-1,1,-3
1501623362921225,1,3,2,2,0,-1,-1,1
1501623362921225,5,7,8,4,7,10,10,9
1501623362922209,-2,-4,-4,1,5,6,-9,-3
1501623362922209,0,-3,0,-4,-9,-5,-2,-2
1501623362935277,2,1,-3,-4,1,-4,1,1
1501623362935277,1,-2,1,-2,-7,5,9,2
1501623362942223,1,2,5,4,-1,-4,10,-1
1501623362942223,3,-1,-4,-1,0,1,-1,12
1501623362958261,-5,-3,-1,0,-4,-4,-20,-9
1501623362958261,1,0,-2,-1,-2,0,26,1
1501623362960237,-1,5,1,2,-1,-1,10,-2
1501623362960237,-5,-14,-8,-6,-3,-2,-11,-4
1501623362972301,-4,-2,-2,-2,4,1,4,1
1501623362972301,-3,-5,0,1,0,-12,-10,0
1501623362987311,4,11,0,-2,0,8,1,1
1501623362987311,-4,4,0,1,-1,-6,3,-8
1501623362995318,-2,-5,-6,-2,0,2,-4,0
1501623362995318,5,2,8,2,6,5,-4,4
1501623363002265,-5,-11,-11,-7,-5,-7,-9,-6
1501623363002265,1,-3,1,1,-2,0,-11,4
1501623363018317,3,6,0,-2,4,6,7,5
1501623363018317,-5,1,-3,-2,-3,-3,-1,-10
1501623363020279,1,-5,1,0,-2,-5,-6,-2
1501623363020279,-2,1,-3,-4,-2,-2,-1,0
1501623363032289,-4,0,-3,1,1,-5,10,-3
1501623363032289,-3,-11,-11,-10,-12,2,-11,-5
1501623363041391,-2,0,5,2,2,-3,1,0
1501623363041391,-3,-8,-4,-1,-1,-2,5,-5
1501623363055442,-1,-7,-1,-3,-3,2,-6,-2
1501623363055442,-2,5,-4,-3,-5,-6,-3,1
1501623363061402,-1,1,1,-1,-6,-8,2,-3
1501623363061402,3,6,2,-5,3,5,-38,-5
1501623363078423,-1,1,-2,1,-1,1,0,-1
1501623363078423,-4,-3,-4,-3,-4,-5,-5,-6
1501623363079419,-1,0,0,3,3,1,-2,0
1501623363079419,-1,-2,-3,2,5,1,17,-1
1501623363092427,-1,1,-2,-4,-7,-3,-11,2
1501623363092427,-1,-5,2,2,8,0,-3,-1
1501623363101418,-1,-1,-5,-4,-12,-4,-3,-2
1501623363101418,-2,7,-1,0,0,1,4,-2
1501623363115450,-3,-4,-3,-5,-5,-2,-7,-6
1501623363115450,-1,-9,-6,-1,0,-1,15,-1
1501623363121523,2,17,9,3,5,0,-16,-5
1501623363121523,3,1,2,3,-3,-4,7,6
1501623363138535,-3,6,4,3,4,3,13,2
1501623363138535,-3,-4,-7,-4,-2,-2,-12,-6
1501623363139510,0,-13,-2,-2,-3,-3,-14,2
1501623363139510,-3,5,4,0,-6,-7,28,-13
1501623363151507,1,-5,-3,-6,-4,-9,-22,-1
1501623363151507,-1,-5,-2,-1,3,7,18,6
1501623363160495,-5,-2,1,4,5,-2,-18,-5
1501623363160495,2,6,-5,-7,-12,1,-5,2
1501623363175504,4,7,9,3,-1,-1,10,5
1501623363175504,-2,7,2,-4,-4,-6,0,-2
1501623363181568,1,-2,-4,1,4,7,58,2
1501623363181568,2,-5,-2,1,6,2,-1,5
1501623363197661,-2,-8,-1,4,4,-2,3,-6
1501623363197661,2,3,0,-1,-5,-2,1,2
1501623363204629,1,4,2,1,5,-1,-5,5
1501623363204629,0,-7,-3,0,3,-1,8,4
1501623363211658,2,1,-2,0,6,6,9,1
1501623363211658,-1,-3,0,1,-4,-6,0,1
1501623363221665,-3,-10,-2,-3,-3,1,-9,-4
1501623363221665,-1,-1,-1,-1,1,-1,-8,4
1501623363234731,-5,-8,-7,-5,-6,-2,-7,-7
1501623363234731,0,5,1,3,-3,-6,-8,-1
1501623363241738,-2,-4,-3,-3,-1,1,14,3
1501623363241738,-3,-3,-1,1,1,1,-23,-4
1501623363257746,-1,-8,-4,-2,2,-1,-9,4
1501623363257746,-2,4,1,-1,-5,-3,11,2
1501623363264751,-1,-6,-4,-3,-1,2,-35,-1
1501623363264751,-3,0,4,6,5,2,27,-6
1501623363271758,-2,-3,-4,-3,-1,-1,-10,-1
1501623363271758,1,-3,1,3,2,3,-17,-6
1501623363280707,1,3,1,-4,2,3,11,-2
1501623363280707,-6,-6,-8,-4,-7,-2,-16,-3
1501623363294746,2,-1,0,0,1,0,-8,3
1501623363294746,0,8,4,1,10,6,6,2
1501623363301742,3,3,4,3,-12,-6,0,0
1501623363301742,-3,-7,-5,-1,-1,-3,-5,-9
1501623363317799,-2,1,-2,-2,-3,-3,6,-10
1501623363317799,0,-12,-4,0,-2,2,-2,1
1501623363324847,-3,3,-4,-3,-1,0,-5,-3
1501623363324847,-5,-2,4,-1,-6,-5,-6,-4
1501623363331855,2,8,1,1,-3,-5,-5,-1
1501623363331855,-1,-7,-1,5,9,5,7,-1
1501623363341805,-1,-7,-3,-1,3,4,20,2
1501623363341805,4,9,2,1,1,4,2,0
1501623363354866,-2,-2,1,6,9,1,-8,-1
1501623363354866,-3,3,-2,-2,-12,-13,7,0
1501623363361898,2,-9,-5,-7,1,-3,-19,2
1501623363361898,2,-3,-2,-1,-2,1,-2,5
1501623363376925,1,4,6,3,0,-1,11,-1
1501623363376925,2,7,-1,-2,1,-1,-6,-3
1501623363385914,0,4,3,3,2,-1,13,1
1501623363385914,1,-1,-4,-4,-9,-4,-2,1
1501623363400925,-2,-2,-3,-4,-5,2,14,-1
1501623363400925,-2,-8,-4,-4,-1,-2,-16,-5
1501623363401926,-4,-13,-4,1,-1,-5,-13,-9
1501623363401926,9,20,5,-2,2,1,-3,8
1501623363414991,2,7,-2,-2,4,7,12,2
1501623363414991,1,-1,-3,-1,-2,-1,-11,2
1501623363421997,-2,-3,1,3,1,-3,-12,-3
1501623363421997,-1,-7,-2,1,3,-1,11,-4
1501623363438015,1,0,3,4,-3,3,-6,-2
1501623363438015,-1,4,-2,-3,6,0,-15,6
1501623363443960,6,3,-2,0,-10,3,8,3
1501623363443960,-8,8,5,1,-4,-15,-14,-9
1501623363460967,-2,1,-2,-1,-1,2,12,-2
1501623363460967,2,2,0,1,-3,-2,-6,-3
1501623363462030,-1,-3,-1,0,-1,-3,2,1
1501623363462030,0,-8,-6,-2,3,0,-2,0
1501623363475035,-1,-3,-1,-3,-7,-5,-9,-8
1501623363475035,2,-11,-6,-1,3,7,42,12
1501623363482038,-3,0,0,-1,3,4,-2,-5
1501623363482038,2,7,11,4,0,1,1,0
1501623363498001,-3,3,-5,1,1,-6,3,2
1501623363498001,-2,4,-1,-2,0,-6,-16,-6
1501623363504018,-1,7,0,-3,-9,-6,11,3
1501623363504018,-3,-12,-11,-6,-4,2,8,1
1501623363521064,-4,-8,0,1,-1,-2,3,-7
1501623363521064,2,1,2,-1,1,0,-9,2
1501623363522045,-2,-6,-2,0,0,1,-12,-3
1501623363522045,-2,-8,-5,-4,2,1,-2,-2
1501623363535045,12,17,4,2,1,3,1,5
1501623363535045,-7,-1,5,2,-7,-6,0,-9
1501623363542044,1,9,5,2,8,0,1,3
1501623363542044,0,-8,-5,-1,-1,4,-10,-2
1501623363558057,2,-8,-4,2,8,6,18,10
1501623363558057,-1,-4,-3,0,0,5,-16,-4
1501623363564057,-2,0,-2,-2,-6,-6,-23,-6
1501623363564057,-2,-1,-3,-1,3,0,27,-5
1501623363581110,-4,-1,0,-4,-6,-6,-10,-1
1501623363581110,4,5,5,2,-10,3,5,-1
1501623363582078,-3,-13,-8,-6,0,-1,2,-3
1501623363582078,7,20,1,0,0,1,-5,2
1501623363595074,-3,-3,2,-2,-6,-10,-9,-6
1501623363595074,-1,1,3,5,9,-2,13,-1
1501623363602156,1,6,0,1,5,-2,-17,2
1501623363602156,3,-3,3,4,4,6,41,6
1501623363618133,-4,-12,-4,-6,-1,6,-17,-6
1501623363618133,-4,-1,-5,-4,1,2,-16,-10
1501623363624136,1,3,0,0,-5,-5,-8,-4
1501623363624136,-1,-7,-6,-1,2,-3,-2,9
1501623363641151,0,5,3,-2,-3,-5,-7,3
1501623363641151,-2,-10,-7,-6,-2,2,5,-2
1501623363642129,-2,4,1,1,8,3,-18,-5
1501623363642129,-4,-6,-3,-1,-12,-5,-8,-5
1501623363655193,0,7,0,-1,-3,-1,3,-1
1501623363655193,4,5,2,-1,-1,-4,-16,3
1501623363662197,-2,0,3,2,0,-3,-4,-1
1501623363662197,-4,-6,-2,-3,3,-3,-27,-6
1501623363677162,-1,0,4,1,-2,1,10,4
1501623363677162,0,-4,-4,-2,-2,3,17,-2
1501623363684213,-3,-8,-5,-5,-11,-6,16,3
1501623363684213,0,5,1,-2,5,5,-14,3
1501623363701224,-4,-8,-7,-2,-8,-7,-11,-8
1501623363701224,-1,2,2,-2,4,6,-3,3
1501623363702174,-3,-12,-6,-4,-5,1,9,-1
1501623363702174,-4,-1,1,1,-2,-2,-1,-6
1501623363715234,-2,-3,-4,-5,-6,-7,-8,-2
1501623363715234,-2,1,-2,0,-2,-4,6,1
1501623363723187,7,8,4,0,4,4,8,4
1501623363723187,-7,-4,-6,-4,-7,-7,-10,-12
1501623363737715,-1,-3,-5,-5,0,0,-9,-4
1501623363737715,0,-7,-4,1,-2,-5,-21,-1
1501623363744825,-1,-2,-2,-5,-5,-2,7,-2
1501623363744825,-2,-7,3,4,1,-1,-16,-7
1501623363760836,-4,-6,-3,-1,1,1,1,2
1501623363760836,-3,5,-1,-2,-1,-6,10,-2
1501623363766861,-2,0,0,2,-3,1,2,3
1501623363766861,1,-1,0,-1,3,0,5,1
1501623363774904,4,-5,-1,3,0,1,16,10
1501623363774904,0,-3,1,2,10,8,-5,-5
1501623363781907,-1,11,0,0,-5,-3,-4,-3
1501623363781907,-3,-10,-6,-4,-3,0,21,6
1501623363797890,3,10,4,4,5,6,-1,1
1501623363797890,-2,3,2,2,-7,-7,8,-3
1501623363804006,3,-4,0,0,0,-1,-6,1
1501623363804006,-2,-3,-4,-1,0,1,1,1
1501623363821022,-3,-2,1,-1,1,-5,-5,-3
1501623363821022,-1,-4,-6,-7,-8,0,32,5
1501623363822021,-4,-2,-2,1,5,-2,-1,-2
1501623363822021,4,4,5,7,2,0,-9,2
1501623363834996,-1,1,-2,-3,0,4,27,0
1501623363834996,-2,-1,1,0,-2,-4,-13,1
1501623363841999,2,2,1,-1,-4,-6,9,1
1501623363841999,-1,2,-1,-1,0,2,-9,0
1501623363858006,-3,-7,-4,-3,-1,-2,1,-6
1501623363858006,-1,-4,1,1,4,4,-1,3
1501623363864015,-3,0,0,-1,-1,2,4,-3
1501623363864015,0,-5,-4,-2,2,1,15,3
1501623363881020,2,6,2,0,-1,2,-1,0
1501623363881020,3,6,1,-5,-15,-4,-8,-1
1501623363882022,-8,-9,-11,-5,-3,-2,4,-5
1501623363882022,0,6,3,-3,-3,-3,-6,-8
1501623363896069,0,1,-1,1,1,-4,-15,8
1501623363896069,0,-2,-1,0,-5,-3,-4,0
1501623363909082,1,0,-3,-1,0,1,13,4
1501623363909082,-2,0,2,-1,-8,-4,6,-4
1501623363918081,-6,-8,-2,2,7,-3,-8,-6
1501623363918081,1,3,-4,-5,-4,-3,19,8
1501623363924093,-5,-11,-2,-2,-2,0,-18,-10
1501623363924093,0,4,-5,-4,0,-4,-3,1
1501623363941068,1,5,2,1,-2,2,11,-1
1501623363941068,-6,-4,-1,1,4,-3,-33,-7
1501623363942061,0,-6,-4,0,0,1,3,4
1501623363942061,-1,-6,-1,-1,1,0,-3,-1
1501623363954077,-5,-9,-5,-3,-12,-4,-2,-7
1501623363954077,0,2,0,3,2,0,-4,-4
1501623363963065,6,8,6,4,5,4,-7,4
1501623363963065,0,-2,-3,-2,1,4,2,1
1501623363977080,0,1,1,0,-2,-1,-1,4
1501623363977080,-2,-6,-3,-2,4,5,12,2
1501623363984088,0,7,0,-4,-4,-8,-1,-8
1501623363984088,3,7,3,-1,-8,4,-5,1
1501623364001148,1,6,3,3,4,1,7,-1
1501623364001148,-1,-1,3,1,2,0,-8,-4
1501623364002110,-3,3,-2,1,-4,-5,9,2
1501623364002110,-6,-9,-8,-5,-14,-15,-15,-5
1501623364014156,-4,-4,-7,-6,1,2,2,-3
1501623364014156,0,1,2,2,-3,-2,-10,-7
1501623364023122,-2,1,-2,-2,-1,-4,-5,1
1501623364023122,-1,-1,0,1,2,2,3,1
1501623364037136,2,-3,2,2,0,-4,-22,0
1501623364037136,-3,-5,-5,-4,-4,-3,28,-3
1501623364044122,-1,-3,-1,0,1,5,-7,-1
1501623364044122,-1,-2,-2,-1,-3,-3,-7,-4
1501623364061147,-2,0,-1,-2,0,-6,-28,-3
1501623364061147,-6,-10,-3,-1,2,2,-3,1
1501623364062150,-3,-3,-7,-4,-7,-7,-1,-5
1501623364062150,-3,0,1,-1,-5,-4,5,2
1501623364074195,2,3,6,3,10,15,14,2
1501623364074195,-3,-6,-1,-2,-1,-7,-15,-5
1501623364083164,1,2,-1,0,2,2,-10,-1
1501623364083164,-5,-6,-4,-2,-3,-4,-6,-7
1501623364097158,-3,-4,-5,-6,1,-1,-14,-11
1501623364097158,0,1,1,5,2,0,20,4
1501623364104180,3,7,8,1,2,-1,-16,0
1501623364104180,4,7,5,4,11,9,-7,0
1501623364120227,-5,-11,-8,-4,-6,-4,-8,-3
1501623364120227,0,3,-1,-2,-1,0,-5,0
1501623364127181,-5,-4,-5,0,7,1,4,-3
1501623364127181,-2,-7,-4,-3,-10,-4,7,6
1501623364134200,1,8,8,2,-2,-2,16,-2
1501623364134200,0,3,1,5,0,-5,-4,2
1501623364144192,-1,-11,-3,0,-1,-3,10,-4
1501623364144192,0,8,-1,-5,-2,-3,-24,-7
1501623364157201,-2,-2,-2,1,5,7,40,3
1501623364157201,3,2,0,1,-2,-3,0,3
1501623364164206,-6,-8,-4,-6,-6,-2,-12,-8
1501623364164206,-3,-3,-4,3,4,-1,-5,-4
1501623364180218,2,0,-1,-4,1,-1,-5,3
1501623364180218,-1,6,1,-1,-2,0,8,0
1501623364187222,3,-2,3,0,-8,0,16,5
1501623364187222,-2,-2,1,4,6,0,8,0
1501623364194226,-5,-11,-4,-2,-5,-4,9,6
1501623364194226,-3,-1,-3,-4,0,-1,0,-5
1501623364203234,1,-9,-4,-3,-3,-2,-11,6
1501623364203234,-4,-5,-9,-4,-5,-8,-11,8
1501623364217256,0,6,2,2,0,0,4,0
1501623364217256,-4,-11,-7,-5,-1,-2,-13,-7
1501623364224248,-4,-4,-7,-7,-6,-4,-13,-9
1501623364224248,2,1,5,4,8,8,12,4
