timestamp,emg1,emg2,emg3,emg4,emg5,emg6,emg7,emg8
1501622034448303,0,1,0,0,-1,-20,-5,-1
1501622034448303,0,0,-1,2,21,8,4,0
1501622034454306,0,-1,-2,-1,-3,58,15,2
1501622034454306,1,-1,-1,-2,5,-5,9,1
1501622034455308,-1,0,-1,-1,-7,-17,-6,-5
1501622034455308,-1,0,-1,0,-4,-3,-2,2
1501622034456309,-2,-2,0,-1,2,-18,-4,-4
1501622034456309,-1,0,-1,-3,-12,21,-1,0
1501622034467345,-3,-2,-1,-2,-3,-13,-6,1
1501622034467345,-2,-2,-2,-4,-12,-15,1,-3
1501622034475345,-2,-1,0,0,0,-10,-9,-5
1501622034475345,0,-2,-1,0,12,13,0,2
1501622034482467,0,-1,-1,3,-5,-27,-4,-5
1501622034482467,0,0,-2,-3,-9,39,1,-2
1501622034497478,0,0,-1,-3,-1,22,-1,-1
1501622034497478,-1,0,-4,-2,0,-31,2,-3
1501622034505471,-3,-2,-1,-1,5,4,2,0
1501622034505471,0,-2,-1,1,11,0,2,4
1501622034513482,0,1,1,1,-8,-9,-6,4
1501622034513482,-2,-1,1,2,-5,0,-3,-3
1501622034527501,0,-2,-1,-5,-7,-11,1,-1
1501622034527501,-2,-1,-1,0,-5,18,-7,-6
1501622034535477,1,-1,-3,-3,1,-14,1,3
1501622034535477,0,2,0,-1,-2,-19,-7,-1
1501622034574505,-1,-3,-1,0,-2,18,3,-1
1501622034574505,1,-1,-1,-1,6,27,3,1
1501622034576503,-3,-4,-2,-1,-2,-14,-4,-5
1501622034576503,-2,-1,-2,-3,1,2,3,3
1501622034576503,0,2,1,4,-9,-27,-6,-2
1501622034576503,-3,-2,-1,-6,-2,31,10,-1
1501622034579532,0,-1,2,2,5,-14,-10,-4
1501622034579532,0,0,-1,1,0,3,-4,-2
1501622034587538,-3,1,0,-1,-1,-27,3,-1
1501622034587538,-1,1,0,3,6,4,2,4
1501622034594543,-1,-1,-1,-2,-2,6,1,0
1501622034594543,0,-2,0,0,6,-2,4,-2
1501622034601548,-2,1,-1,-1,0,-3,-10,-3
1501622034601548,-2,0,-1,0,-8,-13,-3,-5
1501622034616547,-2,-1,-2,1,1,14,6,2
1501622034616547,1,1,-1,-2,-13,4,0,5
1501622034624674,0,-4,-4,-4,0,-11,-6,5
1501622034624674,-3,-4,-4,-9,-26,-52,-15,-7
1501622034633681,1,1,1,3,2,11,0,1
1501622034633681,-1,0,0,0,-3,6,3,-2
1501622034647689,-1,0,2,1,9,-3,3,-2
1501622034647689,-3,-1,-1,1,4,6,-5,-2
1501622034654723,-1,0,0,0,-3,-3,-1,-1
1501622034654723,-1,-2,-2,-3,-2,-5,-1,-4
1501622034661729,2,-2,0,3,-3,-4,0,0
1501622034661729,2,1,1,-1,-4,-17,-1,1
1501622034676710,-1,-2,0,-3,-6,-2,1,-2
1501622034676710,-2,0,-2,0,17,-4,-1,0
1501622034684719,0,0,0,-2,-9,20,3,-2
1501622034684719,-2,-2,0,3,5,-25,-1,-2
1501622034693722,-1,-2,-4,-6,5,31,1,1
1501622034693722,-3,-2,1,2,6,9,1,1
1501622034707734,-1,-1,-2,-3,-7,2,1,-1
1501622034707734,2,-2,-1,0,1,-5,-2,-1
1501622034714746,0,-1,-1,-4,-7,-10,-6,-3
1501622034714746,0,0,0,1,-1,-3,-3,-2
1501622034721886,1,-1,-1,0,5,6,-3,-2
1501622034721886,-1,0,-1,-2,1,14,4,2
1501622034736897,-3,0,-2,-6,-4,-10,2,-3
1501622034736897,1,0,0,0,-5,-21,-10,-2
1501622034743869,1,1,0,2,13,-16,2,1
1501622034743869,0,-2,-1,-5,-14,4,-5,-2
1501622034752876,0,-3,0,0,0,4,-6,-8
1501622034752876,0,-3,0,-2,-13,-30,-6,1
1501622034767887,-4,-3,-3,-8,6,30,-2,-2
1501622034767887,-2,-1,-1,4,8,-14,-2,-1
1501622034773867,0,2,-1,3,7,4,5,4
1501622034773867,-1,-1,-3,-8,-25,13,-4,-6
1501622034781897,-1,-2,0,-1,-4,-25,-8,-3
1501622034781897,0,-1,-1,2,8,13,1,1
1501622034796937,-1,1,2,2,-9,3,4,2
1501622034796937,-1,-2,-1,6,10,5,1,2
1501622034803942,0,-1,-1,-3,-7,-7,1,-1
1501622034803942,-1,-1,-2,-1,5,9,-2,-2
1501622034818951,0,1,0,5,3,-38,-2,-1
1501622034818951,3,-1,-3,-7,12,35,6,2
1501622034827932,0,-1,1,1,-1,-2,4,-1
1501622034827932,-1,-1,-2,-5,-4,7,0,-2
1501622034833963,-1,-2,1,1,-2,-12,-3,2
1501622034833963,-1,0,0,2,0,9,7,-1
1501622034841940,-3,-1,-1,0,1,43,5,1
1501622034841940,1,1,1,-2,-1,-6,-5,-1
1501622034856927,-1,-2,-2,-3,-4,-7,-4,-3
1501622034856927,-1,-1,-1,-1,0,-18,-7,-1
1501622034863990,0,-1,-2,-1,3,6,-4,1
1501622034863990,1,0,1,4,13,13,-5,-3
1501622034878999,0,-1,-2,-5,-11,-30,-2,-1
1501622034878999,-3,-1,0,-2,-5,-21,-8,-7
1501622034887976,2,-1,-1,1,4,40,9,1
1501622034887976,-1,-2,-1,2,1,5,-4,-1
1501622034893978,0,-1,-1,-3,6,11,5,3
1501622034893978,-1,-1,-1,-3,1,6,-8,-8
1501622034901985,-4,-3,-2,-4,-9,-18,-1,-1
1501622034901985,-2,1,0,-1,-4,-1,6,0
1501622034917023,0,-1,-3,-4,1,39,1,1
1501622034917023,-1,0,0,2,-7,-30,1,-1
1501622034923996,0,1,0,-1,2,11,-3,0
1501622034923996,-2,-1,0,-1,-12,-38,-2,-2
1501622034939040,0,0,0,0,1,25,2,-2
1501622034939040,-1,-1,-2,-1,12,-9,4,2
1501622034948016,-2,-2,-2,-2,1,-39,-6,-2
1501622034948016,0,-2,-2,2,6,28,5,-1
1501622034954048,0,0,1,-4,-3,3,-6,-2
1501622034954048,-1,-1,-2,-7,-16,-2,3,-2
1501622034962054,0,-1,0,-2,-12,-19,-8,-3
1501622034962054,-3,-2,0,-2,7,-10,-3,-4
1501622034977011,-3,-1,-1,1,-2,4,-5,-4
1501622034977011,1,2,2,1,0,12,4,0
1501622034984072,2,-1,0,3,5,30,1,0
1501622034984072,0,-2,0,-3,-10,-18,-5,-1
1501622034999082,-1,-3,-1,-1,7,2,4,1
1501622034999082,-3,-1,0,-2,0,24,-1,-1
1501622035007027,-1,1,1,1,-7,-28,-5,-3
1501622035007027,0,-1,-4,-3,8,14,4,7
1501622035014062,-1,-2,-3,-1,-5,-20,-2,-1
1501622035014062,-1,-1,-2,1,4,11,1,3
1501622035022097,1,2,0,-2,0,29,2,-2
1501622035022097,-1,0,2,2,-6,-32,-3,-1
1501622035037108,-3,-2,-1,-5,-6,-9,-8,-3
1501622035037108,1,2,0,2,3,-4,-3,-1
1501622035044090,-3,-3,-2,-1,1,22,0,-5
1501622035044090,0,0,-2,-2,-14,-9,7,8
1501622035059071,-2,0,-2,0,-3,-3,-2,0
1501622035059071,-2,-2,1,-1,-2,-4,-4,-3
1501622035068102,-1,-3,-4,-3,-4,-1,11,4
1501622035068102,-1,0,-1,1,-3,-20,-2,-4
1501622035074078,1,-1,-1,-4,-6,7,0,0
1501622035074078,-1,-1,-2,0,-2,16,5,-1
1501622035090089,0,-1,1,0,5,-11,-6,0
1501622035090089,-1,-1,-3,-6,2,15,-3,-5
1501622035097150,0,-1,0,0,2,-8,1,0
1501622035097150,0,-3,-3,-2,-5,-36,-4,0
1501622035104155,-2,-3,-2,-2,-3,-4,0,0
1501622035104155,-1,0,1,3,4,6,-2,-2
1501622035119166,-2,-3,-3,-1,-10,22,-2,-1
1501622035119166,-2,0,-2,-1,3,0,-12,3
1501622035127171,-1,3,0,1,5,-25,4,-1
1501622035127171,-1,-1,1,0,-3,19,-6,-3
1501622035134176,0,0,0,2,2,5,7,0
1501622035134176,-1,1,0,-1,-3,-7,-3,-4
1501622035150131,1,-1,-2,-2,-6,-19,-7,0
1501622035150131,-2,-1,-2,-1,5,25,0,-3
1501622035157133,0,-1,0,1,-2,-21,5,1
1501622035157133,-3,-4,-2,-2,0,51,-2,-2
1501622035164195,-1,0,0,-1,-1,-15,-3,-7
1501622035164195,1,1,-1,1,-2,20,1,-2
1501622035179210,2,1,2,2,-1,-11,3,2
1501622035179210,-1,0,1,2,5,4,-1,-1
1501622035187214,-1,-2,-2,-4,2,22,2,0
1501622035187214,2,0,0,-2,-13,-18,0,0
1501622035196170,0,-1,-1,-1,17,5,1,3
1501622035196170,0,-1,-2,-4,-15,-46,-3,2
1501622035210230,-2,-2,-1,2,2,27,-3,-5
1501622035210230,-2,-1,-1,-4,3,12,-3,2
1501622035217204,-3,0,-2,-2,2,6,-4,-7
1501622035217204,-1,0,0,1,1,-13,1,0
1501622035224208,-1,0,0,0,-3,1,-3,4
1501622035224208,-2,-1,-2,0,2,-7,2,-2
1501622035239222,-2,0,-1,0,3,4,1,-5
1501622035239222,-2,-1,-2,0,-1,-9,0,-1
1501622035247229,-2,-1,-3,-3,-5,-5,-1,-2
1501622035247229,1,-4,1,4,7,8,9,4
1501622035256208,0,-1,0,-4,4,-19,-5,0
1501622035256208,2,-1,1,5,-6,23,4,-3
1501622035270271,0,-1,1,-5,-6,-16,-2,2
1501622035270271,-1,-1,0,-1,4,-17,-3,-3
1501622035277248,-1,-2,-2,-5,-10,-5,1,0
1501622035277248,0,0,1,-1,7,20,4,0
1501622035284280,-4,-1,0,0,2,1,-4,-5
1501622035284280,-1,0,-2,0,-2,17,7,4
1501622035299292,-1,1,3,3,-1,-47,-10,-2
1501622035299292,1,1,-1,-1,4,29,3,-2
1501622035307267,4,0,0,0,0,-7,1,1
1501622035307267,-4,-3,-3,-4,1,10,-7,-6
1501622035316245,1,1,-3,0,3,28,1,0
1501622035316245,-1,-1,0,-1,-7,-30,2,2
1501622035330284,-1,0,0,1,7,20,4,2
1501622035330284,1,-1,0,1,9,1,7,5
1501622035337292,0,0,1,1,0,-13,-7,-2
1501622035337292,-3,-3,-4,-5,-15,-9,-1,-2
1501622035344324,0,0,-2,-4,-2,-27,-6,-4
1501622035344324,-1,0,0,-2,-3,4,3,0
1501622035359283,0,-1,-2,-2,-9,1,-2,-3
1501622035359283,1,1,1,3,6,-10,-2,0
1501622035367281,0,-1,-2,2,6,20,-1,-1
1501622035367281,-1,1,-3,-8,-9,0,-1,-2
1501622035376288,-4,-2,-1,-3,-3,0,-9,-2
1501622035376288,-1,0,2,4,12,-1,2,1
1501622035390328,-3,-2,-1,1,7,21,-10,-3
1501622035390328,1,-2,-2,-6,-23,-21,-7,-3
1501622035396330,-2,-1,1,4,3,9,5,0
1501622035396330,1,-1,-2,-4,6,-2,-3,-1
1501622035404366,-1,-2,-3,-1,-8,-10,-2,-1
1501622035404366,-1,-1,-1,2,3,-25,-6,-5
1501622035419353,0,-1,-1,-4,-3,26,-3,0
1501622035419353,-3,-2,-2,-7,-13,-12,0,-3
1501622035427354,0,0,-2,0,-1,-15,1,-2
1501622035427354,-1,-1,0,2,0,31,0,-2
1501622035435389,-2,-1,-2,1,0,-23,-3,-2
1501622035435389,-2,-1,-3,-5,-5,19,-4,-4
1501622035450397,-1,1,1,-1,-8,-9,1,2
1501622035450397,-2,2,0,-4,2,-17,-4,1
1501622035456372,-2,-1,-1,-2,0,10,2,0
1501622035456372,1,-2,1,8,22,10,3,1
1501622035464414,0,-1,-1,-3,-6,-3,1,-3
1501622035464414,-1,0,-3,1,1,26,-4,3
1501622035480420,0,-3,-1,-3,-13,-35,0,-1
1501622035480420,-2,0,-1,0,4,6,0,-1
1501622035486425,-1,-1,0,-5,-3,7,1,3
1501622035486425,0,-1,1,1,4,-6,-3,-2
1501622035495431,-2,-2,0,1,1,10,-7,-5
1501622035495431,1,-1,-3,-5,-3,-3,2,2
1501622035510444,-1,-1,-1,-3,0,-13,2,-1
1501622035510444,-1,-1,-1,-1,-8,4,0,2
1501622035516446,-1,-1,-3,0,8,29,2,-1
1501622035516446,-1,0,0,4,2,-16,-5,-4
1501622035524422,-1,-1,-1,-3,3,26,7,2
1501622035524422,0,-2,-1,0,2,-32,-7,-3
1501622035539409,1,-1,-2,-4,-2,-11,7,4
1501622035539409,0,0,1,0,-8,2,-6,-2
1501622035555442,-3,-2,-2,1,1,-13,0,-1
1501622035555442,0,1,0,-3,7,14,7,-1
1501622035561423,0,1,1,0,-2,16,1,2
1501622035561423,-1,-2,-2,-7,1,-11,-5,-2
1501622035569454,0,0,1,6,4,-18,3,2
1501622035569454,-1,-3,-1,-1,-8,-1,-4,-3
1501622035584463,1,-1,-1,0,1,-18,-3,-5
1501622035584463,-2,-1,1,-2,-9,2,0,-2
1501622035585464,1,-1,0,-2,10,-21,-5,0
1501622035585464,-3,-1,-2,-2,-10,58,7,1
1501622035599473,1,-1,0,0,-2,-6,3,-6
1501622035599473,-2,-2,-2,-1,-2,-1,-2,-2
1501622035606492,-2,-3,-1,1,6,-3,-4,1
1501622035606492,-1,0,0,-4,-4,-9,2,2
1501622035621489,-4,-1,-2,-1,7,19,2,-2
1501622035621489,0,-1,0,1,7,-17,2,3
1501622035630499,-1,-1,-1,-1,-17,12,-5,-3
1501622035630499,0,-2,-2,-3,-1,-15,-2,0
1501622035644534,-2,0,0,1,-3,-8,2,2
1501622035644534,-3,-3,-2,3,8,21,-1,-3
1501622035645486,0,2,1,0,-10,-17,2,2
1501622035645486,-2,-2,-2,-3,2,24,-2,-6
1501622035659494,-2,0,0,1,4,-14,-5,0
1501622035659494,-2,-2,-1,-7,-19,13,3,2
1501622035666551,0,1,-1,1,-8,4,-2,-1
1501622035666551,2,3,2,3,2,-40,1,4
1501622035681562,-4,-2,-1,0,4,3,-2,0
1501622035681562,2,0,-2,-4,4,4,4,1
1501622035690538,-3,-2,-4,-5,-6,15,-3,-5
1501622035690538,3,0,0,0,4,9,2,1
1501622035705522,-2,-3,-1,0,-10,-31,-4,6
1501622035705522,-2,-1,1,2,8,16,0,-3
1501622035705522,0,0,1,3,10,10,1,1
1501622035705522,-4,-4,-2,-4,-6,-10,-5,-5
1501622035719589,1,1,0,-1,-7,-34,-4,-1
1501622035719589,-4,-1,-2,-4,-8,2,-1,-4
1501622035726593,0,-1,1,3,3,-11,0,-1
1501622035726593,0,0,-1,1,9,5,-4,2
1501622035741553,-1,-1,0,2,3,27,5,0
1501622035741553,-2,-2,-2,0,-7,-39,0,-2
1501622035750585,0,-2,-1,1,9,36,5,0
1501622035750585,-1,-1,1,0,-13,-8,-2,-3
1501622035764623,-1,-1,-2,-8,-16,4,-3,-1
1501622035764623,-1,0,-2,1,1,-19,-7,-2
1501622035765587,-1,-2,-1,-3,13,25,6,0
1501622035765587,-1,-2,0,2,-1,-18,-7,-4
1501622035779627,1,-3,-2,-3,-7,-2,1,0
1501622035779627,0,-2,0,-1,2,13,0,4
1501622035786632,-1,-4,-3,-1,-17,-20,-1,-2
1501622035786632,1,0,-1,-5,-6,-14,2,1
1501622035801642,0,0,0,0,4,4,-5,-5
1501622035801642,-1,0,-2,-1,2,-30,-4,-1
1501622035810627,-2,-1,-2,-3,-14,17,7,1
1501622035810627,-1,-1,-3,0,4,7,2,0
1501622035824633,1,0,2,1,5,17,3,-5
1501622035824633,0,1,0,1,0,9,-4,-1
1501622035825612,1,0,1,2,11,-20,-3,2
1501622035825612,-2,-1,-4,-8,-17,-21,-4,-4
1501622035839621,0,0,-1,2,10,19,5,1
1501622035839621,-2,-1,0,2,-2,18,0,-1
1501622035846678,-2,-1,0,0,5,-29,-6,-3
1501622035846678,-1,0,-1,1,12,9,-1,1
1501622035861661,-1,-1,-1,-3,-7,-20,-1,2
1501622035861661,0,-2,-2,-4,-5,2,5,0
1501622035869637,0,0,1,-1,-1,7,-8,0
1501622035869637,-2,1,0,4,11,16,1,-1
1501622035884646,-1,-2,-4,-5,-18,-12,-1,-2
1501622035884646,1,1,-1,1,7,2,-4,-3
1501622035885653,0,2,-1,-5,-7,-9,-2,-2
1501622035885653,-4,-3,-1,1,0,-9,-3,-5
1501622035899665,2,-3,0,3,9,19,1,4
1501622035899665,-1,-4,0,0,-1,-43,-3,-1
1501622035906663,-1,-1,-2,-1,-9,7,-4,-2
1501622035906663,1,1,2,3,-2,4,0,-4
1501622035921678,0,-3,-3,-1,2,-6,8,0
1501622035921678,-1,-1,-1,-4,-17,-29,-1,-1
1501622035929679,-1,-1,-1,1,5,75,9,1
1501622035929679,-3,-1,0,-1,2,-18,1,0
1501622035944696,-1,0,-2,-2,-13,-13,-7,-2
1501622035944696,1,0,-3,1,8,8,-2,1
1501622035945697,-1,-2,-3,-8,-10,-16,0,-3
1501622035945697,0,-1,-2,-3,-3,11,-1,-1
1501622035959699,-1,0,0,4,3,-9,-7,-2
1501622035959699,1,0,0,-8,3,22,5,0
1501622035966763,-1,-1,-1,0,-1,-21,-5,-2
1501622035966763,1,0,-2,-2,-1,0,-3,1
1501622035981774,-1,1,1,0,4,-13,5,1
1501622035981774,-2,-1,-1,3,-15,15,-1,0
1501622035989723,-1,-1,-1,-2,6,-34,-1,-1
1501622035989723,1,-1,-1,-3,-8,46,1,5
1501622036004774,-1,0,1,0,10,14,-7,-4
1501622036004774,-1,-1,0,4,11,-1,2,1
1501622036012801,-2,-5,-4,-6,-6,-8,-2,0
1501622036012801,-1,-2,1,6,2,-24,-1,-1
1501622036019774,0,-2,-3,-5,-11,18,-1,-3
1501622036019774,-2,0,-1,1,-2,-7,-5,-2
1501622036034811,-2,-2,-2,0,-4,0,-1,0
1501622036034811,0,0,0,-2,-1,-12,9,3
1501622036041766,-1,-1,1,1,4,33,2,0
1501622036041766,-2,-2,-3,-6,-1,-23,-13,-4
1501622036049796,1,1,-2,0,-7,-7,-7,-3
1501622036049796,0,-1,-2,0,9,28,5,0
1501622036064782,-1,-2,-1,-1,10,2,4,3
1501622036064782,-1,-1,-1,-5,-18,17,-1,-2
1501622036072812,1,0,1,4,8,-6,0,0
1501622036072812,-1,-1,0,-4,-22,-22,-11,-5
1501622036079818,-2,-2,-4,-2,4,16,4,2
1501622036079818,3,-2,2,7,6,-37,10,8
1501622036086850,-1,-2,-1,-1,-4,0,-2,-2
1501622036086850,0,1,-1,1,1,-10,-1,-3
1501622036101859,-2,0,0,1,4,-3,-4,-7
1501622036101859,-3,-2,1,0,-9,6,-1,-2
1501622036109868,-3,-2,-4,-4,3,10,2,0
1501622036109868,0,-1,-1,2,2,-69,-5,-2
1501622036123819,-1,-1,1,-2,-5,15,-5,-1
1501622036123819,0,-1,-2,0,7,17,5,-4
1501622036132887,1,0,0,0,2,-6,-2,4
1501622036132887,-3,-2,-2,-3,-2,3,-4,-1
1501622036139832,-1,-3,0,0,5,-25,-2,-1
1501622036139832,-1,1,-1,-3,-13,18,2,-3
1501622036146891,-1,0,1,5,9,-14,-7,0
1501622036146891,1,-1,-4,-6,1,59,6,-1
1501622036161850,-1,2,0,-2,-4,-9,3,-1
1501622036161850,-2,-1,0,0,4,-2,-2,2
1501622036169909,-3,0,-1,-2,-6,-7,-7,-5
1501622036169909,-1,-3,-1,1,2,-13,-4,2
1501622036192923,1,-1,-3,-2,-8,6,6,-1
1501622036192923,-1,0,-2,1,15,42,8,-3
1501622036193874,-2,-1,-1,0,1,-7,-1,-1
1501622036193874,-3,-1,0,-2,-9,-10,-7,-6
1501622036198929,-4,-3,-1,1,4,3,-9,0
1501622036198929,-1,-3,-2,0,2,-8,0,-1
1501622036206875,1,-2,0,-2,-1,13,1,1
1501622036206875,0,1,2,4,16,-4,4,-2
1501622036221943,-2,-3,-4,-4,-1,5,-7,2
1501622036221943,-1,2,0,-1,-1,8,1,-1
1501622036229919,-1,-1,-1,0,-1,-2,2,-3
1501622036229919,0,0,-1,-1,-2,7,0,-2
1501622036243959,1,-1,-2,-3,-7,-8,-8,-1
1501622036243959,1,-1,0,0,5,-21,-4,1
1501622036252958,0,0,1,-1,-1,17,10,1
1501622036252958,-1,-2,-1,0,-5,-29,-4,-1
1501622036267950,0,0,-1,-4,-6,4,-2,-1
1501622036267950,-2,-2,-2,-6,-5,7,-3,-4
1501622036267950,0,-3,-1,4,6,0,1,0
1501622036267950,1,-2,-2,-6,-14,-31,-7,-1
1501622036281988,-2,-2,0,-1,-5,8,1,-3
1501622036281988,-1,-1,-2,-4,-4,-15,-5,1
1501622036289933,0,0,-1,0,1,10,7,0
1501622036289933,0,-1,-1,1,16,12,-2,1
1501622036304002,-3,-2,-2,-2,2,-21,-6,-5
1501622036304002,1,1,0,-1,-17,13,6,6
1501622036312981,-2,1,0,0,3,-5,-1,-7
1501622036312981,0,-2,-1,-1,4,-3,2,2
1501622036327967,-2,-1,0,1,5,-14,-9,-2
1501622036327967,-1,-2,-3,1,4,10,0,1
1501622036327967,1,1,0,-1,6,8,-3,0
1501622036327967,-2,-2,-2,-10,-19,7,2,-2
1501622036342084,0,3,-1,0,-6,-7,-1,-1
1501622036342084,-2,-2,-1,-3,5,-13,-6,-3
1501622036350146,0,-2,-2,-3,-9,-8,-3,0
1501622036350146,-2,-1,0,3,4,2,-2,-4
1501622036364156,0,1,-1,2,-2,13,7,2
1501622036364156,-1,-1,1,-3,0,-15,-7,-4
1501622036372136,-2,-1,-2,-2,2,-7,-2,-5
1501622036372136,0,-2,0,2,-8,-7,1,6
1501622036387176,0,0,-2,-2,-8,-20,0,1
1501622036387176,1,0,-1,3,7,29,4,-2
1501622036388147,0,-3,0,0,10,33,-1,-2
1501622036388147,0,-1,-3,-5,-4,-23,1,-3
1501622036402186,-1,-1,0,-1,-13,-12,5,2
1501622036402186,-3,0,-2,-4,-6,2,-5,-2
1501622036410191,-3,0,-3,-4,-14,-25,-1,-1
1501622036410191,-1,-1,0,1,5,24,2,3
1501622036424170,0,-1,-1,0,10,-6,-1,-1
1501622036424170,0,1,1,1,3,3,1,-1
1501622036432209,-1,0,1,1,-5,4,1,2
1501622036432209,-3,-3,-4,-3,-8,10,3,-2
1501622036447186,0,-3,-3,-4,-12,14,-5,-5
1501622036447186,0,-1,1,0,-2,-28,-2,3
1501622036448165,0,-1,-3,-1,-1,1,-3,-2
1501622036448165,0,1,1,3,8,9,6,2
1501622036462197,-1,-3,0,-2,-1,-14,-10,-4
1501622036462197,-1,0,0,1,9,16,3,0
1501622036469181,0,-1,0,-1,-18,-22,6,4
1501622036469181,0,-1,-2,1,14,-9,-4,-4
1501622036484243,-1,0,-1,-5,-10,-15,-1,-3
1501622036484243,-4,-3,-4,-3,-1,0,-6,-7
1501622036492232,0,-1,-1,-2,-1,-18,-4,2
1501622036492232,-2,-2,-3,0,-1,25,-1,-1
1501622036507209,0,0,-1,1,4,-14,-2,2
1501622036507209,-2,-1,-1,3,3,5,-3,-8
1501622036508206,-2,0,-1,-5,-2,-4,2,0
1501622036508206,-2,0,-1,3,2,-11,1,0
1501622036522219,1,0,1,1,12,17,8,4
1501622036522219,-1,-3,-2,-1,-5,-8,0,-1
1501622036529276,-1,-2,-2,-1,-13,-1,-6,-1
1501622036529276,-3,0,1,-1,-6,6,0,0
1501622036544287,-1,-1,-1,3,6,52,10,4
1501622036544287,1,-1,-1,-1,-7,-35,1,0
1501622036552231,-1,-1,1,2,5,26,-5,-5
1501622036552231,3,-1,0,-1,-3,-8,-5,-1
1501622036567242,0,0,-2,-1,3,5,0,0
1501622036567242,0,0,-1,-2,-12,13,2,3
1501622036568242,-3,-3,0,4,10,-5,-5,-5
1501622036568242,2,1,1,-5,-3,-8,2,7
1501622036582252,-2,-3,-1,-5,-13,-13,-1,-2
1501622036582252,-1,-3,-1,-3,2,-1,-5,-3
1501622036589257,0,1,-1,-1,14,4,5,1
1501622036589257,-3,-2,-2,-2,-3,26,2,-2
1501622036604327,-1,-1,-1,0,8,-32,1,0
1501622036604327,-1,2,1,-1,-6,-8,-1,0
1501622036612275,0,0,-2,-2,-10,-11,-7,-2
1501622036612275,-1,-2,-3,1,13,5,-1,-4
1501622036627326,1,0,-2,-4,-5,9,2,3
1501622036627326,0,-1,0,-1,7,-9,0,1
1501622036628295,0,-1,1,-1,-2,5,4,0
1501622036628295,0,3,1,2,-2,-16,-3,0
1501622036642296,-3,-1,-1,1,5,-22,-7,-4
1501622036642296,1,-1,0,1,-2,51,10,4
1501622036649329,-2,-2,-1,0,-4,-22,-3,2
1501622036649329,-2,-2,-3,-2,-9,-6,-6,-3
1501622036664370,-1,-1,2,3,2,12,5,-1
1501622036664370,0,-1,-2,-2,4,-29,-6,-2
1501622036672332,-1,0,-3,-1,1,35,10,2
1501622036672332,-1,0,0,3,6,9,-1,-5
1501622036687356,-1,0,0,-1,-4,-21,-3,0
1501622036687356,1,1,-1,-1,0,-3,1,1
1501622036688336,0,-2,0,1,-3,-26,-8,0
1501622036688336,0,-1,1,-1,2,23,-1,1
1501622036702369,-1,-3,-3,-1,5,9,3,0
1501622036702369,-3,-1,0,1,5,-11,-9,-2
1501622036709403,-1,-2,-3,-4,-2,5,0,-3
1501622036709403,0,-1,1,-4,-10,-22,-3,-1
1501622036724367,-1,1,-1,0,5,4,-4,-1
1501622036724367,1,-1,-2,-2,-1,-14,-3,3
1501622036732418,0,-1,-1,-2,-1,11,1,1
1501622036732418,-2,-2,-1,-1,1,7,2,0
1501622036747369,-1,0,-1,0,-2,12,4,-2
1501622036747369,-2,-2,-1,-1,-1,-1,-2,-5
1501622036748370,-2,2,-1,-3,0,-41,-6,-5
1501622036748370,-2,-1,-2,-2,-2,34,3,0
1501622036761438,-2,-2,-1,-5,-15,20,-3,4
1501622036761438,0,0,0,4,3,-8,-2,-1
1501622036769445,-1,-3,-3,-1,6,11,2,0
1501622036769445,0,-2,0,1,-10,-10,1,0
1501622036784495,0,-2,0,4,3,-8,-4,-4
1501622036784495,0,0,-1,-3,-3,7,-3,-3
1501622036792947,-1,-2,-1,-3,-7,1,0,-2
1501622036792947,2,-1,0,0,10,17,2,0
1501622036807927,0,1,-1,-4,-12,-8,-2,0
1501622036807927,-3,-3,-1,0,-5,20,4,3
1501622036807927,1,2,0,-1,7,0,1,-1
1501622036807927,-1,0,0,2,1,-20,-4,-2
1501622036821938,0,-2,0,-2,3,-10,-1,-2
1501622036821938,-1,-1,1,2,0,-1,4,-2
1501622036828972,-1,-3,0,0,-9,-9,2,0
1501622036828972,0,-1,-1,0,9,-7,1,3
1501622036843951,0,0,-1,2,17,15,-1,2
1501622036843951,-1,-1,-4,-8,-26,-15,-4,-2
1501622036852987,-1,-1,-1,1,3,2,0,-1
1501622036852987,-2,-2,-3,0,-3,36,0,-1
1501622036867971,-4,-3,-2,-1,-2,8,-5,-5
1501622036867971,1,0,-1,-1,10,-3,-4,-2
1501622036867971,1,1,0,1,-9,-7,-7,-3
1501622036867971,-4,-1,0,-1,-2,-16,-8,-4
1501622036882008,1,-1,-1,-2,2,-3,4,6
1501622036882008,-2,-3,-1,-2,-2,5,-4,-2
1501622036888959,-2,-2,-4,-3,3,-1,5,1
1501622036888959,0,-2,-2,-1,-1,-14,-4,-5
1501622036904024,0,2,-1,1,2,-4,-1,-1
1501622036904024,-1,1,-1,0,-12,-21,4,1
1501622036912985,-2,-1,-3,-2,-16,-4,-11,-2
1501622036912985,1,-2,-2,-6,-9,-14,-2,-4
1501622036928012,0,-3,0,3,3,-6,-5,-5
1501622036928012,-1,-2,-1,-7,-3,4,5,3
1501622036928012,-1,-3,0,1,7,-1,-5,-3
1501622036928012,0,-1,-2,-2,-1,-22,-3,-1
1501622036941992,0,-1,1,-3,-5,-2,10,0
1501622036941992,1,-3,0,2,5,11,-3,1
1501622036949056,0,1,-2,1,1,10,0,1
1501622036949056,-3,0,-1,-3,-2,-12,-8,-3
1501622036964067,1,1,-1,-3,0,-14,-8,0
1501622036964067,-2,-1,-1,0,3,10,4,-3
1501622036973021,0,-1,-1,-1,-5,-48,-1,4
1501622036973021,2,2,3,4,5,28,6,4
1501622036987084,-2,-3,1,-1,-3,6,-1,-2
1501622036987084,-1,0,-1,2,15,16,2,2
1501622036995091,-1,-2,-3,-8,-21,-11,-2,-2
1501622036995091,-2,-2,-2,-1,-3,-1,4,1
1501622037002095,1,0,0,0,0,-16,0,2
1501622037002095,-1,-2,-3,-2,-9,-7,-6,-4
1501622037009039,0,-2,1,3,10,24,1,-3
1501622037009039,-1,-1,-2,-2,-5,-38,-6,0
1501622037026057,-1,-1,-3,-1,-4,37,1,2
1501622037026057,0,2,1,3,4,15,1,-1
1501622037033087,0,-1,-2,-7,-6,-25,-3,-2
1501622037033087,-1,-2,-1,0,-6,5,2,1
1501622037047076,0,0,0,1,-8,-10,-2,-2
1501622037047076,-3,-1,-4,-3,5,4,-2,-4
1501622037055130,-2,0,-1,3,10,1,0,1
1501622037055130,0,1,0,0,5,0,6,0
1501622037063110,-1,0,0,-2,1,-4,-5,-2
1501622037063110,0,-2,-1,-3,-8,-33,-4,-1
1501622037069092,-2,-2,-1,2,2,13,-4,-1
1501622037069092,1,1,-1,0,-5,16,5,3
1501622037084152,-3,-1,-1,4,5,-5,-6,-6
1501622037084152,-1,0,0,3,3,-11,-5,-5
1501622037092157,-1,0,2,0,4,13,2,-1
1501622037092157,-2,-2,0,1,5,3,0,3
1501622037107114,-2,-1,0,-1,2,-8,0,-4
1501622037107114,-3,-1,-3,-4,-6,-8,-13,-4
1501622037115175,-1,0,0,1,6,11,1,-1
1501622037115175,0,1,-2,1,1,-22,-6,-1
1501622037122119,1,0,-2,-4,-3,10,15,6
1501622037122119,1,-3,-2,1,-1,-10,1,1
1501622037129132,0,0,0,3,5,10,1,-3
1501622037129132,-2,-2,-3,-5,-14,-6,-5,-5
1501622037144165,-1,-3,0,0,-3,-2,-3,-1
1501622037144165,0,0,1,0,0,-2,7,1
1501622037152169,-2,-2,-1,-6,-8,-10,-5,-1
1501622037152169,-1,-2,-1,2,2,-9,-2,-4
1501622037167179,-3,-3,-3,-2,5,-8,-3,-3
1501622037167179,0,1,1,1,4,24,-1,1
1501622037175185,2,1,0,-1,-11,-22,2,2
1501622037175185,-1,-1,-1,1,4,2,-4,-3
1501622037190177,0,2,0,0,1,-9,6,3
1501622037190177,-1,-1,0,5,10,32,0,-2
1501622037191169,-3,-3,-6,-9,-10,6,-1,-5
1501622037191169,0,1,0,0,8,14,-2,1
1501622037204181,3,0,-1,-2,-9,-33,-1,0
1501622037204181,0,-2,-2,-6,-26,3,6,1
1501622037212187,1,-1,0,0,1,3,-2,2
1501622037212187,-2,-2,-1,-2,-5,7,-1,-5
1501622037227223,-3,-2,-5,-3,-1,-15,-15,-7
1501622037227223,2,-3,0,0,3,-7,-1,2
1501622037235227,-1,-1,-2,3,5,11,6,-1
1501622037235227,-1,-1,-2,-2,-4,-2,0,2
1501622037250238,0,-2,-2,-4,-3,8,-3,-2
1501622037250238,-1,-1,-1,1,0,-16,4,-2
1501622037251210,0,0,0,-2,-13,18,5,2
1501622037251210,1,-2,-1,-1,7,-12,-4,0
1501622037264248,-3,-1,0,0,-4,5,-3,-1
1501622037264248,-1,1,1,1,0,-12,1,-2
1501622037272232,-1,1,0,6,14,25,1,-1
1501622037272232,2,-1,0,-4,-11,-40,-8,-4
1501622037287265,1,-1,1,4,8,30,12,1
1501622037287265,0,0,-3,-4,-4,-25,-4,-1
1501622037295269,-1,-3,-1,4,7,7,0,-1
1501622037295269,-2,-3,-3,-5,-2,20,0,0
1501622037310280,-1,-1,-2,-2,2,-11,-5,-3
1501622037310280,-1,-2,0,-2,5,22,4,-2
1501622037311263,0,0,1,-2,-22,13,2,-1
1501622037311263,0,-1,0,0,3,-27,6,8
1501622037324290,0,-2,-1,-2,-7,0,-5,-4
1501622037324290,-3,-2,-3,1,1,12,-2,1
1501622037332296,-1,-3,-3,-5,5,-5,-13,-1
1501622037332296,-1,0,-1,1,-1,10,0,-4
1501622037347297,0,1,-1,-2,-3,3,-2,-1
1501622037347297,-1,0,-1,-5,4,-19,-2,0
1501622037355329,-3,-2,0,-2,7,7,-2,-4
1501622037355329,-1,1,1,0,4,23,2,1
1501622037369296,-1,0,0,-4,-7,-12,-9,-2
1501622037369296,0,-1,1,4,7,13,7,0
1501622037377299,1,2,-2,-2,-1,-17,-1,-2
1501622037377299,-4,-2,-2,1,-7,3,-1,-3
1501622037384304,-2,-4,-3,0,3,12,-1,0
1501622037384304,0,0,1,0,0,4,-3,0
1501622037392309,1,0,0,0,3,-15,3,2
1501622037392309,-1,0,-1,0,-11,4,1,-2
1501622037407349,-1,-2,-1,-2,7,-8,-2,-1
1501622037407349,-1,-1,-1,-5,-5,-10,4,3
1501622037415330,-2,-2,-3,0,3,-1,-4,-4
1501622037415330,0,0,0,0,3,-23,-10,-1
1501622037430366,-1,0,2,5,4,17,3,1
1501622037430366,-2,-1,-2,-2,-5,-5,-12,-3
1501622037430366,1,-2,2,0,-8,-2,6,4
1501622037430366,-3,-2,-2,-2,-8,-9,0,-3
1501622037444346,-2,0,-3,-2,-6,17,5,0
1501622037444346,-2,-2,-3,-1,5,-25,-15,-3
1501622037452351,-1,2,0,-1,-1,0,-3,0
1501622037452351,-4,-5,-6,-4,-7,6,2,-3
1501622037466361,-2,-2,1,-4,-6,-3,-5,-1
1501622037466361,0,-1,0,-3,-20,-21,-5,-2
1501622037475397,-1,-1,-1,2,7,8,3,1
1501622037475397,2,-1,-2,-2,4,13,0,-1
1501622037490408,-2,1,-3,-1,-6,-12,2,-2
1501622037490408,0,-2,0,3,3,12,6,2
1501622037490408,-1,-2,0,1,3,-11,-6,-3
1501622037490408,-1,-1,-1,-3,-1,-22,2,1
1501622037504417,-2,-4,-2,-4,-4,-1,0,-2
1501622037504417,-1,0,-1,-1,-4,1,-2,-2
1501622037512423,0,-3,-1,0,3,2,4,1
1501622037512423,1,-1,1,-6,2,17,1,1
1501622037526433,0,-1,0,2,0,-20,-6,-4
1501622037526433,1,0,-1,-1,1,11,4,1
1501622037535440,0,0,0,2,-3,7,-1,-2
1501622037535440,-1,0,1,2,-7,0,-3,0
1501622037550421,-2,-3,-2,-2,11,0,1,0
1501622037550421,-1,-2,-2,0,3,-3,-2,-2
1501622037550421,-2,-2,-4,-5,-17,-18,3,1
1501622037550421,0,-1,0,3,-3,4,-1,-3
1501622037564430,2,2,2,3,19,-1,5,4
1501622037564430,-3,-3,-3,-5,-20,5,3,-4
1501622037572437,-2,0,0,1,3,-14,-6,-1
1501622037572437,0,1,-2,1,8,11,2,0
1501622037586475,0,2,0,-1,-1,-20,0,1
1501622037586475,0,0,1,1,6,-14,4,0
1501622037595459,0,-1,-1,0,-10,16,-5,-3
1501622037595459,0,-1,0,0,-3,3,1,1
1501622037610493,-2,-3,-6,0,6,4,-10,-2
1501622037610493,0,2,0,0,0,-9,-6,0
1501622037610493,0,0,0,-1,2,-12,-1,1
1501622037610493,-2,0,1,2,4,-6,-2,-2
1501622037624501,-1,-1,0,-1,-6,32,2,-4
1501622037624501,1,-1,-1,-1,1,2,5,1
1501622037632507,-2,-3,-3,-4,11,-21,-7,-3
1501622037632507,-1,0,-1,-1,4,20,4,0
1501622037646518,-3,-1,-1,1,-7,-9,1,0
1501622037646518,0,-1,-2,-1,-2,29,2,-2
1501622037655496,1,1,0,2,14,0,4,2
1501622037655496,2,1,1,-3,-5,6,4,4
1501622037670535,-2,0,-1,0,-2,-2,-4,-6
1501622037670535,0,-1,0,2,5,-12,-1,1
1501622037670535,2,0,0,-1,1,4,2,2
1501622037670535,-4,-5,-4,-6,-9,3,-4,-4
1501622037684545,0,-1,2,0,-6,6,3,4
1501622037684545,-2,2,1,1,-2,-26,-9,-3
1501622037692550,-1,-1,-1,-2,-3,14,3,2
1501622037692550,-1,-1,0,1,0,-18,-6,-2
1501622037706537,0,-1,-1,0,0,11,-1,1
1501622037706537,-1,0,-2,-7,-11,12,11,2
1501622037714542,-2,0,0,1,-1,-25,-6,-2
1501622037714542,-1,0,1,0,-11,17,0,0
1501622037729576,1,1,-1,-5,-11,-6,-5,-3
1501622037729576,0,-4,-2,0,4,-8,2,4
1501622037730577,-2,-1,-3,-5,5,33,-2,-3
1501622037730577,2,-1,-1,1,4,-6,3,3
1501622037744589,-2,-3,0,-2,-11,-12,-6,-5
1501622037744589,-1,-1,-3,-2,0,10,2,0
1501622037751568,-1,-1,-1,1,0,-4,0,-2
1501622037751568,-1,-3,-2,-3,0,-12,-1,1
1501622037775610,-1,-2,-2,-4,-4,12,-2,-4
1501622037775610,-1,0,3,2,4,-5,-5,3
1501622037776594,0,-1,-2,-3,-4,5,1,-2
1501622037776594,-1,0,0,-1,0,-7,0,-2
1501622037789620,-2,-1,-1,0,-3,12,8,1
1501622037789620,-2,-1,-1,-2,0,20,-5,-4
1501622037790592,-4,-2,-2,-1,2,-10,-4,-1
1501622037790592,0,0,-2,-2,10,-6,-5,-1
1501622037804607,1,-1,0,-5,-12,13,1,-1
1501622037804607,-1,0,-2,0,11,-11,-1,0
1501622037811634,-2,-3,-2,0,-6,-12,-1,-1
1501622037811634,-4,-1,0,2,5,8,2,-2
1501622037826616,-2,-1,0,3,6,4,-2,-3
1501622037826616,2,2,-1,3,5,11,1,3
1501622037834623,0,-1,-2,-5,-14,-41,-5,-4
1501622037834623,-4,-2,-3,-2,0,25,1,-3
1501622037849633,5,2,0,-2,8,6,9,4
1501622037849633,0,0,1,-2,-5,-21,-3,-3
1501622037857638,-3,-2,-1,3,9,6,-6,-5
1501622037857638,2,0,2,1,-3,14,1,0
1501622037864644,-3,-3,-3,-3,-3,0,-3,2
1501622037864644,1,-2,0,-2,-2,-9,-2,3
1501622037871654,-1,0,0,0,-1,-3,3,-1
1501622037871654,-1,-1,-1,1,0,-10,-3,-3
1501622037886688,0,0,-2,-1,1,-9,-8,-2
1501622037886688,0,1,-1,2,-3,-40,-2,-2
1501622037894671,-1,0,0,1,6,61,5,2
1501622037894671,0,0,-2,-1,-8,-7,1,-2
1501622037909675,-3,-1,-3,-2,-3,3,-1,-2
1501622037909675,-4,-3,-2,-4,0,-9,-6,-5
1501622037910675,-1,-3,-1,-3,-9,-6,3,1
1501622037910675,-1,-1,-1,-5,-6,-28,-11,-4
1501622037924685,0,-1,0,2,3,-11,-2,-1
1501622037924685,-1,-2,-2,-1,-13,29,-2,-2
1501622037931719,0,-1,-2,-4,-11,-4,5,1
1501622037931719,1,1,-2,-1,8,-2,4,2
1501622037946730,0,-1,-1,3,3,-7,-1,-1
1501622037946730,-3,-1,-1,-1,11,-3,0,-1
1501622037954722,0,0,-1,-5,-3,-11,-8,-1
1501622037954722,-1,-4,0,-1,-9,-1,-1,-2
1501622037969747,-1,-1,-2,0,8,19,6,2
1501622037969747,0,-2,-1,-4,-7,-3,-5,-2
1501622037977752,-1,-4,-3,-3,-18,2,0,-3
1501622037977752,0,0,2,1,4,-40,-2,4
1501622037984733,0,2,2,2,2,5,3,-1
1501622037984733,-2,-2,-2,-2,6,25,6,-4
1501622037991734,-1,1,1,1,-5,-7,-4,0
1501622037991734,0,-1,-1,3,9,4,2,0
1501622038006748,-1,-4,-4,-10,-20,-32,3,1
1501622038006748,0,1,0,3,-5,15,4,1
1501622038014762,-1,0,0,-2,-1,-7,-3,-6
1501622038014762,-1,-2,-4,-2,6,11,1,-1
1501622038029789,-1,1,0,4,7,-23,-2,1
1501622038029789,-3,-2,-1,-1,1,6,-3,-4
1501622038037794,-1,-3,-4,-6,1,2,5,2
1501622038037794,1,2,1,0,-5,-10,-3,-1
1501622038044776,-2,-3,-1,0,1,1,-2,-1
1501622038044776,-1,-1,-1,0,-2,-6,0,0
1501622038051781,-4,-4,-4,-5,-15,6,-6,-4
1501622038051781,-1,1,1,3,2,6,-7,-1
1501622038066815,-3,-2,-2,-2,0,14,3,-4
1501622038066815,-2,0,1,-1,8,-14,-6,0
1501622038074793,0,0,1,0,-5,20,8,4
1501622038074793,-2,-3,-1,-2,-7,-22,-7,-5
1501622038089802,-1,-1,-1,-2,-2,-1,5,2
1501622038089802,-1,-3,-4,-2,1,-5,-6,-4
1501622038097815,0,1,0,4,7,-1,7,0
1501622038097815,-1,-1,0,-3,-1,7,1,3
1501622038112848,-2,0,-2,3,-3,2,-5,1
1501622038112848,-2,-1,-1,-3,-2,0,-1,-2
1501622038113821,-1,1,1,2,5,-14,-12,-1
1501622038113821,0,-1,0,2,10,56,14,1
1501622038126840,0,-3,-2,-14,-43,-23,-1,3
1501622038126840,1,0,0,4,7,12,3,0
1501622038134864,-2,-2,-3,-2,-1,-24,-5,-1
1501622038134864,0,1,2,-1,1,1,0,-2
1501622038149874,-1,0,0,3,13,-3,-6,1
1501622038149874,-1,-1,-3,-1,-6,7,1,-2
1501622038157861,0,-2,-2,-1,-5,2,1,1
1501622038157861,0,-1,-1,4,9,-20,1,-1
1501622038172890,0,1,-1,-2,10,9,4,3
1501622038172890,0,0,-2,-4,-14,-16,-12,-2
1501622038172890,-2,0,0,5,12,0,6,-1
1501622038172890,-2,-1,-2,-2,-6,-21,-4,0
1501622038186901,0,0,0,0,4,16,-1,-5
1501622038186901,-1,-1,-3,-5,-1,2,1,-2
1501622038194906,2,0,2,3,6,-5,-1,0
1501622038194906,-1,-1,-2,-4,1,3,3,0
1501622038217922,2,0,-1,2,-10,3,-4,-1
1501622038217922,-3,-3,-1,-4,-6,-4,0,-3
1501622038218898,2,-1,2,-1,0,-5,3,1
1501622038218898,-1,-3,-2,-2,5,13,6,1
1501622038232934,-1,-2,1,3,3,7,-2,-3
1501622038232934,0,-1,-1,-2,-7,19,3,2
1501622038232934,-2,0,-3,-1,1,-8,-7,-3
1501622038232934,-5,-2,-3,0,-5,-7,-4,-3
1501622038246942,-2,1,0,2,9,-19,-2,-3
1501622038246942,0,-1,-1,0,-5,-2,1,-1
1501622038254948,-1,-2,0,0,3,9,-1,0
1501622038254948,-1,-1,-3,-7,-18,-4,-2,-2
1501622038268958,0,1,1,3,15,-5,-2,1
1501622038268958,-1,2,2,0,3,1,-1,-2
1501622038277966,2,-2,-3,-6,5,15,4,-1
1501622038277966,-2,-1,0,-2,-9,-31,-6,-2
1501622038292974,-2,-4,-2,0,3,4,-2,-1
1501622038292974,1,1,1,2,-2,-3,3,4
1501622038292974,-1,-1,-2,-2,0,21,-2,-1
1501622038292974,-1,-1,-1,-3,7,-2,-2,-2
