timestamp,emg1,emg2,emg3,emg4,emg5,emg6,emg7,emg8
1501623514198997,-2,-4,-2,-3,-13,-32,-6,8
1501623514198997,4,0,0,0,0,6,-1,-1
1501623514199997,2,0,1,0,-4,-8,-5,1
1501623514199997,3,1,2,-1,-7,-25,-14,-6
1501623514199997,-9,-9,-6,-5,-1,13,-5,-9
1501623514199997,0,3,6,3,1,-3,0,2
1501623514200998,3,4,-3,-4,-1,13,9,0
1501623514200998,1,3,4,6,8,6,-4,3
1501623514212014,1,-3,1,1,14,50,4,5
1501623514212014,-1,-1,-1,-2,-12,-14,-8,-8
1501623514221020,-4,-1,-1,-3,-11,-47,-16,-5
1501623514221020,-1,-5,-3,-2,-5,-14,-6,-1
1501623514228060,-1,3,0,1,4,8,9,-1
1501623514228060,-6,-3,-1,-1,9,18,4,6
1501623514242070,-1,-3,2,3,5,8,8,2
1501623514242070,-5,-2,-6,-4,-6,-6,0,-11
1501623514253077,2,2,1,0,-3,-10,-5,2
1501623514253077,0,-3,-5,-4,-1,0,1,1
1501623514257082,-4,-4,-1,-1,-1,7,3,-2
1501623514257082,1,4,-2,-3,-5,-13,3,3
1501623514272051,1,-2,-1,-1,-1,5,-1,-4
1501623514272051,-11,-6,-1,2,-2,-10,-2,-6
1501623514287143,2,-1,1,-1,2,10,-5,7
1501623514287143,2,0,-3,-3,5,47,4,0
1501623514320150,-2,7,-1,-5,-5,-8,-1,-6
1501623514320150,-1,-1,-5,-5,-4,-13,3,0
1501623514321165,-4,-3,-5,-2,-1,-11,4,-11
1501623514321165,1,1,-3,0,1,17,-1,-2
1501623514322160,2,-3,4,0,-10,-28,-6,0
1501623514322160,6,4,4,3,4,6,6,6
1501623514325173,-3,-1,1,-1,-3,-13,5,-2
1501623514325173,-9,-5,-5,-5,-1,20,-2,-5
1501623514332178,4,2,1,1,0,-17,-4,7
1501623514332178,-1,2,2,0,-2,-18,-12,-5
1501623514339182,-1,-2,-4,0,0,13,-9,-2
1501623514339182,-4,-3,-5,-1,11,34,9,1
1501623514348185,-3,-2,-2,-2,-5,-10,-3,-3
1501623514348185,-8,-4,-2,-1,2,3,3,-4
1501623514362236,-3,-7,0,-1,-13,-41,-9,4
1501623514362236,1,-2,-2,-3,1,-1,-5,-3
1501623514371202,-1,-4,-2,2,14,31,12,3
1501623514371202,3,-2,1,3,-4,0,-6,-5
1501623514377246,-2,-5,-3,-3,-2,-9,2,3
1501623514377246,3,2,2,2,-7,-30,-6,4
1501623514392246,2,2,0,2,1,-2,-3,-2
1501623514392246,-4,-5,-4,-2,0,16,0,1
1501623514399263,0,2,1,1,9,28,10,0
1501623514399263,0,1,3,0,-3,-16,-4,-5
1501623514408212,-6,-2,-6,-5,-10,-14,-18,-7
1501623514408212,1,2,-3,-4,-8,-25,-6,-1
1501623514422304,3,0,2,2,2,8,-3,-1
1501623514422304,-2,-2,0,1,3,0,9,4
1501623514431327,3,1,-1,-2,4,15,6,-2
1501623514431327,-6,-3,-2,-5,-5,12,2,-3
1501623514436371,2,2,1,-2,-8,-18,-7,3
1501623514436371,1,-5,-2,2,0,-3,0,1
1501623514451354,-4,-5,-1,-1,0,6,1,-5
1501623514451354,1,-3,-3,1,3,18,6,0
1501623514459387,2,-4,0,-3,-6,-18,-8,1
1501623514459387,-4,6,-2,-4,-6,-9,-7,1
1501623514468352,2,4,4,2,-7,-30,-5,-3
1501623514468352,-4,-1,-2,1,2,26,10,-4
1501623514481406,-4,-3,-4,-2,-1,-18,-6,2
1501623514481406,-1,-4,-1,-1,4,29,-1,-6
1501623514490411,0,2,0,1,1,6,1,2
1501623514490411,0,0,0,1,10,20,11,2
1501623514496415,1,7,0,1,-4,4,-1,-1
1501623514496415,4,1,7,1,-3,-22,-11,0
1501623514511426,-2,-6,-8,-4,3,20,2,7
1501623514511426,-2,-5,4,-1,-11,-39,-11,-5
1501623514519430,-2,0,-4,-4,8,36,7,-3
1501623514519430,4,7,2,2,-9,-36,-5,3
1501623514528383,-3,-3,-1,-4,-3,7,4,-1
1501623514528383,1,2,2,3,5,2,4,6
1501623514541447,2,0,-1,-1,0,16,4,-11
1501623514541447,-3,2,2,0,-6,-21,-12,3
1501623514550430,1,-9,-1,-1,-9,-37,-9,-1
1501623514550430,1,-2,-5,-4,0,-6,-3,0
1501623514556457,1,4,4,4,9,17,1,-2
1501623514556457,-3,-2,-2,-4,-4,-9,1,-7
1501623514571411,-1,-4,-2,-3,3,29,18,1
1501623514571411,1,-1,2,-1,-6,-28,-10,-2
1501623514579416,-2,1,0,-2,-8,-27,-4,1
1501623514579416,-2,0,-3,0,6,21,13,-1
1501623514588421,-3,-1,-1,0,1,-2,-3,-2
1501623514588421,3,1,4,3,4,15,-1,-2
1501623514601488,-2,-1,-4,-2,2,5,-5,-2
1501623514601488,-2,-5,-4,-5,-9,-10,-4,-2
1501623514610459,1,2,1,-2,1,4,-2,-2
1501623514610459,-6,-5,-5,1,9,19,5,-4
1501623514616456,4,1,7,1,-13,-45,-28,-3
1501623514616456,-5,-10,-11,-8,2,10,9,-8
1501623514631513,3,-1,3,3,1,6,-2,7
1501623514631513,-1,0,-2,-4,-4,1,-10,4
1501623514639461,-4,-7,-5,-3,-1,13,9,0
1501623514639461,-1,7,3,1,-10,-28,-5,-4
1501623514648467,-4,1,-4,-4,2,0,-6,0
1501623514648467,-1,-1,-4,-3,-1,11,11,4
1501623514661486,-4,-2,0,-1,-5,-18,-9,-3
1501623514661486,5,-1,3,3,4,1,-2,-1
1501623514670481,0,-7,0,0,-9,-5,-3,-4
1501623514670481,1,8,1,0,-2,-7,-6,-1
1501623514676496,-2,-1,-7,-2,9,44,15,3
1501623514676496,-2,-3,-1,0,5,17,9,-3
1501623514693495,0,6,3,0,-4,-16,-5,3
1501623514693495,-3,-5,-4,-3,-5,-11,-3,-7
1501623514699512,-3,2,-1,-2,3,12,5,4
1501623514699512,1,0,2,4,-1,-20,-1,-3
1501623514708519,0,2,-2,3,7,27,6,-3
1501623514708519,-5,-1,0,0,4,4,-1,-4
1501623514721516,0,1,-2,-4,-23,-89,-16,-10
1501623514721516,1,0,-3,0,17,97,4,1
1501623514730523,0,2,5,0,-5,-29,-3,6
1501623514730523,-1,-3,-8,-8,-5,4,0,1
1501623514744544,-1,-3,1,1,4,10,9,-1
1501623514744544,-2,-6,-4,-5,-12,-26,-6,-2
1501623514753538,5,8,2,0,2,-3,0,-3
1501623514753538,-1,2,7,3,-3,-3,0,4
1501623514759567,7,3,0,-1,5,12,5,6
1501623514759567,0,2,-2,1,2,2,7,1
1501623514768563,-1,-3,-2,-3,-7,-27,-8,-2
1501623514768563,-1,-8,0,1,-1,-19,0,0
1501623514781562,-6,-5,-1,0,3,21,0,-3
1501623514781562,-1,1,-2,-1,4,6,0,1
1501623514790564,-5,-6,0,0,-3,11,1,-7
1501623514790564,0,-2,-2,-3,-1,-1,-15,-9
1501623514804576,-1,0,1,-1,-4,-29,-1,1
1501623514804576,1,2,1,-2,-7,0,-2,1
1501623514813591,-4,1,-2,0,3,11,9,-2
1501623514813591,3,3,1,-2,-8,-8,1,-1
1501623514819595,-7,-14,-4,0,-1,-7,-14,-3
1501623514819595,-1,2,-2,-2,-1,-7,-4,-3
1501623514828590,1,2,3,2,2,10,-2,4
1501623514828590,2,3,4,2,-2,-8,-6,-5
1501623514841617,0,-6,-4,-1,3,38,9,4
1501623514841617,1,-2,2,-1,-8,-46,-13,2
1501623514850622,-2,-3,-1,1,3,11,-2,-2
1501623514850622,-5,-6,-3,2,14,42,10,2
1501623514864629,5,7,1,-1,0,-1,0,-2
1501623514864629,0,-5,-2,-2,-5,-5,3,2
1501623514873636,-2,-3,-6,-6,-4,-7,-2,-5
1501623514873636,-7,-11,-7,-4,-3,-3,1,-4
1501623514879641,-3,8,-1,0,7,18,-9,3
1501623514879641,1,1,1,-3,-12,-51,-2,2
1501623514888658,-1,-1,-1,0,7,17,9,-2
1501623514888658,3,-1,1,-3,8,20,-3,-1
1501623514901657,1,-2,-2,-1,-4,2,4,3
1501623514901657,-3,-3,-2,0,7,12,6,-3
1501623514910664,1,5,0,-3,-9,0,-12,-6
1501623514910664,7,11,5,4,-2,-23,9,8
1501623514924714,0,-6,1,1,-5,-10,-4,4
1501623514924714,0,3,1,-1,7,17,-2,0
1501623514933694,-6,-8,-4,-1,-1,4,0,3
1501623514933694,-2,-2,-1,-2,-2,10,3,0
1501623514939730,-1,4,-1,-1,-1,-7,2,-5
1501623514939730,2,-1,2,1,-1,8,-1,1
1501623514948688,-8,-9,-7,-4,2,-2,6,-3
1501623514948688,1,5,-1,-3,-8,-23,-5,0
1501623514961743,1,3,2,0,2,20,1,-1
1501623514961743,-3,-3,-2,0,-3,-16,-13,1
1501623514970693,5,2,0,-1,-1,7,1,6
1501623514970693,-1,-3,-2,0,-1,-13,-4,-1
1501623514984716,0,3,0,-4,-3,-1,8,-2
1501623514984716,0,0,-4,-4,1,18,-6,-4
1501623514993724,-4,-2,1,0,-4,-14,-8,-4
1501623514993724,1,-2,-2,-1,-1,19,2,3
1501623514999746,1,0,0,-1,-10,-54,-15,1
1501623514999746,-2,-4,-2,-2,2,-4,8,1
1501623515014802,-1,0,-3,1,-1,-4,1,-2
1501623515014802,-4,2,-2,-1,-4,3,-5,-5
1501623515021847,-3,-10,-2,1,6,20,8,-6
1501623515021847,-6,0,2,-2,-3,0,-1,-7
1501623515030796,5,0,0,-3,-6,-25,-13,3
1501623515030796,1,0,-2,-1,2,10,6,2
1501623515043862,0,1,1,1,8,16,0,-4
1501623515043862,-2,-2,-3,-3,-6,-12,-2,-2
1501623515052812,2,2,1,2,8,25,7,-5
1501623515052812,-2,-4,-1,-1,-4,-18,-12,-6
1501623515059834,0,-5,-6,-5,-10,-26,-4,0
1501623515059834,-3,-4,-2,-2,-6,-15,-8,-3
1501623515073884,2,-3,-1,0,5,20,1,2
1501623515073884,-1,0,-1,-1,1,-1,0,2
1501623515081889,-2,-3,-2,-1,1,5,7,-2
1501623515081889,-6,-9,-4,1,6,21,2,3
1501623515090840,1,5,-1,-4,-8,-25,-4,0
1501623515090840,1,1,2,1,1,-9,-1,3
1501623515103852,0,1,0,2,6,27,3,1
1501623515103852,3,-2,1,-1,-3,5,5,-4
1501623515112857,0,2,3,0,-8,-44,-6,-3
1501623515112857,3,-1,1,0,1,17,-7,0
1501623515118916,2,5,1,1,5,9,7,5
1501623515118916,3,5,4,2,5,18,2,-7
1501623515133925,-4,-4,-7,-4,-1,12,-5,-4
1501623515133925,-7,-3,-5,-3,-3,-15,-3,-6
1501623515141931,-1,-4,-2,-2,1,13,5,-1
1501623515141931,0,2,2,1,-9,-41,1,4
1501623515150897,1,-3,-3,-2,-1,-8,-8,-3
1501623515150897,-2,1,-1,-2,-5,-13,1,0
1501623515163950,-1,1,0,0,5,19,-8,-2
1501623515163950,-2,1,-1,-1,0,13,2,2
1501623515172913,-2,-1,4,3,3,6,6,2
1501623515172913,-8,-7,-4,-3,-6,-4,5,-5
1501623515178961,2,-1,-3,-6,-12,-31,-7,6
1501623515178961,1,1,-1,1,7,18,-4,-1
1501623515193968,-2,-1,3,0,-6,-17,1,2
1501623515193968,4,3,1,-1,-2,6,-3,9
1501623515201973,-6,-1,-4,-2,3,9,-3,-9
1501623515201973,4,3,6,2,-1,-3,3,3
1501623515210939,-2,-2,-5,-4,-1,15,-5,2
1501623515210939,0,-3,1,3,1,-20,-5,-1
1501623515224050,-3,-4,-2,-4,-8,-4,-2,-4
1501623515224050,-3,-4,-5,-2,-5,-26,-1,3
1501623515233006,-7,-3,-2,-3,-1,8,-3,-12
1501623515233006,1,-1,-1,1,4,12,3,0
1501623515239045,0,-2,1,3,-1,-15,-24,1
1501623515239045,-4,-5,-4,-4,0,12,5,0
1501623515254032,-7,-5,-8,-5,-7,2,6,-4
1501623515254032,3,1,-3,0,5,3,-3,-2
1501623515262070,-3,1,2,-1,-1,-6,1,-3
1501623515262070,0,0,2,3,5,33,-4,2
1501623515271031,2,1,1,1,-6,-27,0,5
1501623515271031,-2,3,2,1,-1,2,2,-5
1501623515284069,4,-1,-1,-2,-1,2,4,-1
1501623515284069,-1,-3,-5,-3,-5,-14,-3,1
1501623515293060,-1,-1,3,1,6,14,-2,-11
1501623515293060,0,-2,-2,-3,-2,2,5,1
1501623515307114,1,2,0,4,3,6,4,0
1501623515307114,2,-2,2,-1,-5,-36,-10,-4
1501623515314120,2,5,5,6,3,6,-5,1
1501623515314120,-4,-6,-7,-5,-3,12,7,-3
1501623515331117,-1,-3,2,1,2,6,4,7
1501623515331117,0,4,0,1,5,16,11,1
1501623515332074,0,-2,-1,-2,-11,-37,-4,6
1501623515332074,3,4,2,-1,-2,10,-6,-1
1501623515344141,-2,0,-4,-4,-1,10,3,-8
1501623515344141,-4,-1,-6,-4,-4,-3,2,-2
1501623515353087,1,-2,0,-1,3,8,2,2
1501623515353087,-5,-2,-3,-3,-10,-18,-5,-7
1501623515367158,-1,1,-2,-1,1,4,4,9
1501623515367158,2,0,2,1,-1,-16,-10,-4
1501623515374160,1,-2,-2,-3,0,18,1,-1
1501623515374160,3,2,4,6,9,3,0,7
1501623515390134,-4,-4,-1,1,-1,1,0,-7
1501623515390134,4,-2,2,-2,-2,0,2,-1
1501623515397138,2,0,-4,-1,6,14,18,8
1501623515397138,-1,2,2,2,-1,-19,-5,2
1501623515404134,-3,-3,0,-3,-7,-23,-1,-1
1501623515404134,-6,-6,-2,-2,-1,17,-7,-6
1501623515414151,-1,-5,-1,-1,3,0,-4,-7
1501623515414151,-2,-5,-3,-2,-2,2,-1,-1
1501623515427197,0,0,-1,-2,-3,-11,-6,-6
1501623515427197,-6,-3,-9,-6,-8,-9,-4,-5
1501623515434204,-2,-2,1,1,7,16,1,-3
1501623515434204,3,-2,-1,-1,-6,-19,0,1
1501623515450213,0,-3,0,-3,-7,-12,-8,-5
1501623515450213,4,0,0,1,1,-5,-1,2
1501623515452164,1,0,-2,0,2,23,3,2
1501623515452164,-3,-2,-2,1,-5,-35,-9,-5
1501623515464224,2,3,3,2,4,27,-1,3
1501623515464224,0,1,2,2,9,32,6,1
1501623515473188,11,7,5,4,-1,-24,-4,6
1501623515473188,-4,5,-1,-4,-2,12,1,-5
1501623515487201,-5,-8,-6,-4,-8,-11,1,-3
1501623515487201,-1,7,1,-1,-7,-13,-3,-2
1501623515494245,-7,-8,-9,-4,-2,12,4,-2
1501623515494245,-2,-1,1,-3,-11,-20,-16,-5
1501623515510255,-1,2,1,3,11,24,5,0
1501623515510255,1,0,5,4,1,-6,4,0
1501623515512200,-2,-4,1,1,-7,-18,-8,-6
1501623515512200,3,-3,2,0,2,4,10,8
1501623515524267,-1,1,-5,-3,-7,-17,1,0
1501623515524267,-3,-10,-5,-2,7,29,-1,0
1501623515533215,-1,7,0,-1,0,-8,0,-4
1501623515533215,-2,-8,-6,-1,5,33,12,-2
1501623515547237,2,4,4,-1,-4,-32,-8,6
1501623515547237,-1,-6,-5,-2,-5,-15,-1,-1
1501623515554230,-3,2,-1,-3,-2,-6,-11,-3
1501623515554230,0,-2,3,-1,4,7,0,-1
1501623515570240,-2,0,-7,-5,-5,-5,9,0
1501623515570240,-3,-5,-4,-5,4,6,-1,1
1501623515572242,-7,-7,-4,0,2,3,4,1
1501623515572242,5,0,5,2,-3,-9,-2,0
1501623515584263,3,6,4,2,-2,6,-6,-5
1501623515584263,2,3,1,1,-6,-20,-3,2
1501623515593257,-1,0,1,1,8,16,10,3
1501623515593257,0,1,-1,-4,-6,-15,-6,3
1501623515607323,0,-1,-2,1,4,2,-1,-5
1501623515607323,2,-3,-3,-2,-1,1,8,1
1501623515614326,1,15,2,1,-3,4,-2,-3
1501623515614326,-4,-6,-5,-2,0,-6,-2,-5
1501623515630337,-1,-1,-4,-1,1,1,0,1
1501623515630337,-1,3,-4,-1,1,-3,2,-3
1501623515632285,-1,-11,3,-1,-5,-23,-16,-5
1501623515632285,-2,2,-2,-4,-1,2,-12,-7
1501623515644309,8,0,3,2,10,25,11,0
1501623515644309,-10,-7,-10,-7,-8,-7,-2,-5
1501623515653313,2,-2,-4,-4,-3,5,-8,-2
1501623515653313,-2,1,-1,-4,-4,-9,-3,-2
1501623515667365,-2,-4,4,1,-5,-16,-12,-4
1501623515667365,4,3,4,-1,-7,-7,-1,2
1501623515674369,-1,-4,-5,0,14,32,14,-1
1501623515674369,-2,-1,-1,1,4,25,6,-2
1501623515690382,1,-1,0,-1,-2,-9,-8,-1
1501623515690382,3,3,2,1,-2,-8,-2,1
1501623515692342,-3,3,2,2,-5,-18,-8,1
1501623515692342,2,2,-1,3,8,25,6,0
1501623515704339,-2,-3,-2,1,-2,-8,3,1
1501623515704339,1,3,3,2,1,-7,-1,-6
1501623515713357,-4,-1,-3,-2,5,9,3,0
1501623515713357,5,-2,0,0,-2,-7,-12,4
1501623515727409,-8,-4,-5,-2,3,23,14,0
1501623515727409,1,2,1,0,0,-1,1,-1
1501623515734500,-2,-5,-2,-1,-5,-6,1,-2
1501623515734500,-5,-5,-3,-2,-4,-13,0,-3
1501623515750513,-3,-4,0,-2,-4,-8,-4,-5
1501623515750513,1,-1,1,1,9,20,5,3
1501623515752470,1,-2,-4,-6,-7,-6,3,0
1501623515752470,-2,-3,-1,0,4,5,4,0
1501623515764524,-4,-7,1,0,-4,-11,-9,-2
1501623515764524,4,7,2,0,-2,-9,-10,-3
1501623515773473,2,3,0,0,-2,-8,5,3
1501623515773473,-1,0,1,2,5,8,-3,1
1501623515787495,0,2,-1,1,4,11,8,2
1501623515787495,-7,-5,-3,-4,-5,-4,-4,-1
1501623515794507,1,0,1,-1,-10,-30,-6,-3
1501623515794507,-2,3,-5,-4,-1,12,-7,-10
1501623515810514,1,1,-3,-1,8,27,6,2
1501623515810514,-1,1,1,0,-5,-17,-6,0
1501623515812513,-4,-8,-3,-3,0,7,3,-1
1501623515812513,0,-10,-3,-1,-5,-3,-2,-7
1501623515824528,0,10,-4,-6,-7,-20,-4,5
1501623515824528,-1,-7,1,1,0,-7,6,1
1501623515833529,2,2,1,1,2,10,-7,-3
1501623515833529,-3,-2,-2,0,1,4,5,3
1501623515846546,-5,-6,-4,-3,-7,-8,-9,-11
1501623515846546,0,1,-1,0,-2,0,2,1
1501623515855546,-7,-7,-4,1,0,-14,-7,3
1501623515855546,2,8,3,0,-6,-7,-1,1
1501623515870554,-4,-4,-5,0,3,12,-7,-8
1501623515870554,-3,-5,-2,0,-5,-15,-7,-5
1501623515872556,-2,-3,-2,-2,0,6,-4,-2
1501623515872556,-3,-2,-2,-3,-1,-2,2,0
1501623515884607,2,2,3,0,0,7,10,4
1501623515884607,-2,2,-2,0,7,24,4,0
1501623515893561,3,-8,-2,-2,-3,-19,5,3
1501623515893561,0,3,-1,-2,-5,-7,-13,3
1501623515906588,-1,-6,1,1,-2,-15,-5,-1
1501623515906588,-1,-1,1,0,4,10,1,4
1501623515915588,-2,1,0,-1,-1,19,2,-6
1501623515915588,1,1,4,2,2,-10,7,1
1501623515930587,-1,-1,-6,-2,-2,-5,-9,-1
1501623515930587,-3,-5,-1,0,-2,2,-10,-6
1501623515932641,0,3,-4,-2,-5,-14,1,3
1501623515932641,-3,-3,-1,1,3,4,4,-1
1501623515944615,-4,-2,-6,-5,1,12,5,-2
1501623515944615,-1,-4,-5,-6,-14,-33,-14,1
1501623515953599,4,7,3,3,9,13,-6,-4
1501623515953599,-6,0,-3,-3,3,23,4,-2
1501623515966666,2,-5,1,-1,-4,-6,-2,0
1501623515966666,-3,-3,-5,-1,2,5,3,-3
1501623515975630,-5,0,-1,-2,-1,14,2,-4
1501623515975630,0,-1,-1,-5,-10,-28,-13,-4
1501623515989683,4,0,0,0,1,8,0,-1
1501623515989683,-3,-1,-4,0,4,12,6,1
1501623515996687,0,0,2,-1,-11,-41,-14,-4
1501623515996687,6,2,6,3,7,12,11,1
1501623516013658,-3,0,2,-3,-5,-6,-6,2
1501623516013658,3,2,1,0,-4,4,3,-2
1501623516014643,4,1,4,4,8,28,12,5
1501623516014643,-3,1,-2,-1,-5,-8,-3,-1
1501623516026709,-2,1,0,2,2,-4,0,-4
1501623516026709,1,-2,0,0,4,9,2,-1
1501623516035659,-2,-4,-2,-3,-3,-12,-16,-3
1501623516035659,-3,1,-3,-1,-5,-12,6,0
1501623516049725,2,3,-2,-1,2,12,-4,5
1501623516049725,-4,-1,-1,-3,-1,2,-4,-1
1501623516056686,4,3,4,4,2,3,4,3
1501623516056686,-3,-3,-2,0,-5,-15,-12,-4
1501623516064733,-4,-3,-3,-1,2,4,10,-2
1501623516064733,1,-4,-1,0,-4,-7,-3,2
1501623516073683,-2,2,0,-2,2,10,6,-10
1501623516073683,3,1,2,2,1,-3,-3,2
1501623516086695,-4,-6,0,2,0,6,-3,-7
1501623516086695,8,12,4,1,2,-6,2,5
1501623516095713,-5,0,-2,-2,-11,-12,-4,-2
1501623516095713,-1,-2,-1,-1,-4,-19,-10,-2
1501623516109724,3,3,4,4,6,3,2,5
1501623516109724,0,2,3,2,0,8,-4,-3
1501623516116758,-7,-7,-9,-4,2,11,5,-2
1501623516116758,1,6,0,-3,-4,-9,-5,2
1501623516124748,0,1,-2,-3,-13,-25,-12,2
1501623516124748,-5,-9,-3,0,4,7,-1,-5
1501623516133780,-2,3,-3,-3,-4,5,1,2
1501623516133780,2,-3,0,0,4,-2,0,1
1501623516146794,1,8,1,-1,5,16,8,6
1501623516146794,-3,-5,-2,-1,1,8,-4,-1
1501623516155742,-2,-3,-1,1,-8,-23,0,-4
1501623516155742,-3,-12,-3,1,1,4,2,8
1501623516169766,-3,2,-3,-6,-12,-28,-19,-9
1501623516169766,-4,1,-1,0,9,28,11,1
1501623516176772,8,3,5,3,0,-4,-4,2
1501623516176772,-4,0,-4,-2,3,4,10,1
1501623516192822,-1,-4,-1,-2,-3,-12,2,-7
1501623516192822,0,-2,-6,-8,-14,-24,-8,-1
1501623516194771,0,-5,0,-1,6,12,5,3
1501623516194771,-4,1,-3,2,8,35,9,-3
1501623516206836,1,-2,0,-1,-5,-15,1,1
1501623516206836,-1,-1,-1,0,-3,-9,0,-2
1501623516215786,-2,-1,-1,0,2,4,7,5
1501623516215786,5,5,-2,-3,-6,-7,-6,-3
1501623516229850,-9,-7,-2,0,-2,-2,-3,2
1501623516229850,8,3,6,2,0,-7,-3,2
1501623516236817,4,4,1,1,4,16,1,3
1501623516236817,-3,1,0,-3,1,10,2,-2
1501623516252816,-1,-1,1,1,0,-3,1,-1
1501623516252816,-6,-4,-2,-2,-1,-8,-3,-5
1501623516254822,-3,-6,-4,-2,-1,2,2,-1
1501623516254822,-1,-4,-2,-4,-4,-13,-1,-1
1501623516266882,5,0,0,-1,-6,-4,-2,-1
1501623516266882,-5,-3,2,3,3,8,0,-1
1501623516275834,-2,-4,-4,-3,4,3,0,1
1501623516275834,3,1,-2,1,-6,-13,-4,-2
1501623516289897,-3,1,-1,0,4,13,5,0
1501623516289897,-5,-3,-6,-3,-3,-6,0,4
1501623516296902,-1,-2,3,1,-4,-6,2,-10
1501623516296902,2,-2,4,2,3,1,-10,-3
1501623516312915,3,0,-2,-2,-5,-7,-3,2
1501623516312915,0,-2,-3,0,-3,1,7,-1
1501623516314884,-1,-1,1,1,2,6,-2,-4
1501623516314884,4,-2,3,-1,-9,-17,-6,-2
1501623516326924,-3,4,1,3,12,26,5,1
1501623516326924,-3,-7,-3,-4,-8,-7,-3,0
1501623516335899,-1,4,2,0,-3,-16,-16,-2
1501623516335899,-3,-10,-2,0,0,8,-10,-8
1501623516349884,1,1,2,1,0,-8,-1,1
1501623516349884,0,-3,-2,0,3,8,6,2
1501623516356888,-3,-2,-5,-4,0,0,3,1
1501623516356888,0,6,3,1,2,0,1,1
1501623516372954,2,-3,-1,-3,-7,-22,-4,-3
1501623516372954,0,4,-2,-3,5,18,0,-3
1501623516374901,2,-1,0,0,0,-13,-6,1
1501623516374901,-3,-2,-4,-3,0,11,11,2
1501623516386912,-2,-1,-2,-2,-1,3,1,-1
1501623516386912,-1,-2,1,0,-5,-11,-10,-3
1501623516395943,0,2,0,-2,-5,-5,-9,9
1501623516395943,-4,1,-3,-3,-3,-3,3,2
1501623516409982,0,3,-2,0,1,6,10,1
1501623516409982,-3,-5,-3,-2,2,15,7,-1
1501623516416987,-5,-3,-4,-2,-4,-8,0,-4
1501623516416987,4,-1,0,-3,-12,-30,-9,-3
1501623516433000,3,0,1,2,2,4,-6,0
1501623516433000,4,3,0,0,-1,-1,-8,0
1501623516434968,-5,-2,-2,-2,1,6,4,1
1501623516434968,-6,-3,-2,-2,5,18,13,-2
1501623516446979,0,-1,-2,-2,1,3,0,-4
1501623516446979,1,2,-1,-1,-8,-27,-9,-4
1501623516456009,-4,-13,-2,3,3,13,4,-1
1501623516456009,-1,4,0,0,3,2,-1,-1
1501623516469971,2,1,-1,-1,-7,-9,-6,-4
1501623516469971,-1,-7,0,2,5,10,3,-1
1501623516476998,7,8,2,-3,-6,-11,-7,2
1501623516476998,-5,-1,-4,0,2,5,3,-3
1501623516493042,-1,-4,-1,-1,5,5,1,1
1501623516493042,-1,-3,-3,1,-1,-1,6,1
1501623516494990,2,0,-1,0,-3,-12,1,-1
1501623516494990,-3,-7,-5,-3,-3,7,-4,8
1501623516506997,-7,-7,-2,0,3,-3,-4,1
1501623516506997,-12,-4,-6,-4,-6,-7,-14,-7
1501623516516026,8,7,2,0,-3,-13,7,2
1501623516516026,-4,-7,-2,-1,2,12,1,-3
1501623516530008,1,2,2,1,4,18,6,2
1501623516530008,-3,-1,-3,-5,-3,-5,-10,-4
1501623516537012,-3,-2,-2,0,2,15,2,1
1501623516537012,-2,-6,-2,1,-5,-14,1,1
1501623516553053,-2,0,-1,-1,-2,-19,-9,-3
1501623516553053,2,3,4,2,2,8,-1,-4
1501623516555031,-8,-3,-7,-2,2,18,-1,-5
1501623516555031,2,2,0,-2,-4,-15,2,-1
1501623516567092,7,3,3,2,1,-16,-1,1
1501623516567092,0,9,2,-1,-3,-6,9,3
1501623516576043,2,1,2,2,10,23,4,-2
1501623516576043,0,0,0,2,6,7,9,-4
1501623516590110,0,3,-3,-4,-3,6,-2,-5
1501623516590110,2,1,2,2,2,-2,-3,1
1501623516597113,-2,-6,-3,-2,-7,-10,-3,-1
1501623516597113,0,1,-2,-4,-6,-4,-6,-2
1501623516613124,-4,-5,-3,0,2,8,-1,5
1501623516613124,1,-1,-1,-2,-6,-14,0,-1
1501623516615073,-2,-1,-1,1,-2,3,-2,-6
1501623516615073,0,-5,-4,-2,-3,1,-5,-5
1501623516627134,0,-8,-4,-3,-2,10,3,1
1501623516627134,-5,-3,-1,-1,3,-4,-3,-1
1501623516636117,2,4,1,0,-8,-21,-5,1
1501623516636117,-2,-1,-2,-1,0,3,-6,-3
1501623516650152,2,1,2,-1,2,11,-6,-1
1501623516650152,7,2,3,4,0,6,11,4
1501623516657127,-4,-2,-6,-3,2,-1,3,0
1501623516657127,2,-2,-1,0,-7,-22,-1,1
1501623516673168,-4,-2,-1,0,-7,-17,-2,-4
1501623516673168,6,1,-2,0,4,3,11,6
1501623516675115,-3,-2,2,0,1,8,-1,0
1501623516675115,0,4,1,1,4,9,0,2
1501623516687123,-5,-5,-7,-3,-4,0,-2,1
1501623516687123,1,2,4,-1,-4,-9,-6,-3
1501623516696130,1,-2,-2,-1,-5,4,-2,-2
1501623516696130,-2,0,-2,1,7,8,10,3
1501623516710141,1,5,4,3,-3,-19,-10,-1
1501623516710141,-2,-2,-1,2,-5,-10,-2,-7
1501623516717145,-2,-1,-3,-2,3,20,6,1
1501623516717145,1,3,4,0,1,-7,-6,0
1501623516733208,-5,-5,-3,-3,2,19,10,-3
1501623516733208,1,2,0,0,-2,1,0,5
1501623516735181,0,1,0,-2,-3,-15,-10,-5
1501623516735181,2,-1,0,0,0,10,9,1
1501623516747222,0,-4,-3,0,0,-3,7,3
1501623516747222,0,-1,-2,-4,-7,-12,2,-4
1501623516756174,-3,-3,1,1,-4,-15,-7,-1
1501623516756174,2,1,1,1,1,-4,-10,0
1501623516770185,-1,1,1,0,0,5,-4,1
1501623516770185,-3,-2,-3,-1,6,17,-3,-4
1501623516777244,2,2,-1,-2,1,5,1,-3
1501623516777244,2,4,1,-1,-4,-12,-6,6
1501623516793250,-5,-9,-5,-3,-4,-5,-3,-5
1501623516793250,-3,-3,-3,-2,2,-3,-3,0
1501623516795223,0,-2,-1,-3,-4,-3,3,3
1501623516795223,0,1,-1,-3,-2,3,-5,-6
1501623516807206,-4,-8,-3,0,0,6,2,-3
1501623516807206,0,2,0,0,-1,-1,0,5
1501623516816230,-2,-6,-2,2,4,11,0,0
1501623516816230,-3,-2,1,-1,-4,-14,-5,-3
1501623516830248,3,2,0,-4,-5,-11,-11,-5
1501623516830248,-10,-12,-13,-11,-12,-12,-2,-6
1501623516837254,-1,7,1,3,10,27,9,1
1501623516837254,-3,0,-1,-2,-12,-39,-10,-3
1501623516853243,-1,-1,1,0,-4,-23,-13,-2
1501623516853243,2,3,4,5,10,25,12,6
1501623516855237,-7,-11,-6,-4,-5,-7,-6,-12
1501623516855237,5,4,1,-2,2,21,7,-1
1501623516867277,-1,6,1,2,0,-6,2,2
1501623516867277,2,0,0,-1,0,2,8,4
1501623516876258,1,-1,0,1,0,-1,-3,3
1501623516876258,0,-6,2,1,-1,-13,-1,-8
1501623516890299,0,0,-3,-3,-1,2,6,-1
1501623516890299,0,-2,-2,-2,-2,4,-3,-6
1501623516897298,0,0,0,-1,2,-5,4,4
1501623516897298,-3,0,-2,-1,3,14,6,7
1501623516912336,-1,5,1,-4,-2,4,-1,-2
1501623516912336,-3,-1,-1,1,3,0,0,-1
1501623516919313,-1,-2,1,-6,-15,-29,-14,-7
1501623516919313,-10,-5,-3,1,5,21,-1,-1
1501623516927319,7,-3,-5,-1,1,6,6,4
1501623516927319,-3,0,-2,-3,-6,-16,-14,-4
1501623516936302,0,-1,1,2,3,0,6,4
1501623516936302,-1,1,-3,-1,0,-1,-11,-8
1501623516950364,-2,0,2,5,12,43,18,4
1501623516950364,-2,-3,0,-3,-12,-35,-19,-2
1501623516957314,3,4,-1,0,0,-17,1,2
1501623516957314,-3,-7,-6,-3,-1,12,-5,-4
1501623516972348,-1,4,2,1,0,5,5,0
1501623516972348,3,4,0,1,3,7,13,-3
1501623516979385,2,-3,0,-1,-9,-2,-6,1
1501623516979385,0,2,-3,-2,-3,-2,-3,3
1501623516987336,-3,-6,0,1,-5,-21,-10,-7
1501623516987336,-3,-2,-1,-3,2,22,3,-2
1501623516996343,-2,-1,-4,-1,7,9,-2,-5
1501623516996343,2,-4,0,-2,-14,-41,-9,-3
1501623517009512,0,-2,-1,1,1,3,0,-2
1501623517009512,-1,-6,-1,-1,-7,-26,-12,7
1501623517018601,-4,-6,-4,-3,5,18,7,-1
1501623517018601,-2,3,-3,0,5,11,4,1
1501623517032641,-4,4,0,-1,1,10,3,0
1501623517032641,-3,-5,-2,-1,-5,-13,-11,-7
1501623517039615,-1,-2,-4,-4,-3,4,7,2
1501623517039615,2,-3,2,3,5,3,0,3
1501623517046650,-3,-4,-2,0,-4,-13,-2,-1
1501623517046650,-1,-1,-1,1,8,22,11,2
1501623517055625,-1,-3,-4,-3,-10,-15,-6,-2
1501623517055625,0,4,2,-1,1,0,-1,8
1501623517069638,4,-6,-4,-5,-3,7,-3,0
1501623517069638,0,3,0,4,7,12,2,1
1501623517078619,-6,-3,-4,-1,2,16,2,-1
1501623517078619,1,2,-1,0,1,3,1,-4
1501623517092651,-4,-1,4,-1,-7,-28,-9,-2
1501623517092651,5,7,1,-3,-2,6,1,-1
1501623517099687,4,1,4,5,3,2,-3,0
1501623517099687,-6,-7,-4,-2,-1,4,2,-4
1501623517115700,0,2,-1,-1,2,-3,3,0
1501623517115700,0,-4,0,0,-1,-2,-7,-5
1501623517117671,-4,-2,-1,-2,-3,-13,-5,-1
1501623517117671,1,-2,1,-3,-1,7,5,-1
1501623517129709,-2,-4,0,1,-2,-10,-4,2
1501623517129709,-2,5,-2,-3,2,13,6,0
1501623517138659,4,5,8,2,1,6,-2,0
1501623517138659,5,0,1,2,-4,-20,3,-5
1501623517152666,-1,5,-1,-2,-4,2,-9,-5
1501623517152666,1,-2,-1,2,2,-4,1,2
1501623517159671,2,0,0,1,2,5,0,-3
1501623517159671,-1,0,2,1,-1,-2,12,2
1501623517175680,-1,5,-1,-2,0,16,-5,-1
1501623517175680,1,-1,-3,-2,1,-4,1,5
1501623517177682,-5,-4,1,1,0,-7,-7,-4
1501623517177682,5,-1,-2,-1,0,13,4,4
1501623517189690,-6,-7,-7,-5,-6,-4,-1,-2
1501623517189690,-1,-1,0,-4,-4,-4,-1,2
1501623517198702,-2,3,0,-1,-1,5,0,-2
1501623517198702,-3,-2,-1,-2,-3,-19,-7,1
1501623517212736,-4,0,-1,0,-1,10,2,0
1501623517212736,-4,-4,-5,-3,7,19,-5,-5
1501623517219713,-2,-3,0,0,-6,-17,-6,0
1501623517219713,-3,-2,-2,-1,-1,-4,-6,-1
1501623517235723,-1,-2,-3,-2,0,-1,-2,-7
1501623517235723,-1,3,3,0,0,7,12,10
1501623517237726,9,2,0,-4,-3,-2,1,9
1501623517237726,-2,3,1,1,-4,-11,-4,1
1501623517249734,5,-2,1,0,2,-7,-5,-3
1501623517249734,-8,-10,-4,-3,-8,-9,-8,-10
1501623517258746,4,10,0,-1,1,11,5,-1
1501623517258746,1,6,1,-1,1,1,4,4
1501623517272750,-1,-5,0,1,1,2,6,7
1501623517272750,-2,-1,-3,-2,-4,-4,-2,0
1501623517279755,-2,-6,0,-1,-4,-16,-4,-3
1501623517279755,-5,-6,-6,-3,-1,19,0,-9
1501623517295767,3,4,2,3,3,4,9,3
1501623517295767,8,0,1,1,0,-5,-1,1
1501623517297768,-5,-4,-3,-1,1,2,-2,-5
1501623517297768,-1,-1,0,0,2,8,1,1
1501623517309804,-4,-10,-5,-4,-3,11,-3,-8
1501623517309804,4,5,6,4,0,-16,4,2
1501623517318783,-2,-4,-4,0,-1,-12,-3,10
1501623517318783,-1,-3,-2,-1,-1,10,-6,-2
1501623517332792,-4,-2,-2,-2,2,-1,9,4
1501623517332792,-2,0,1,0,-5,5,4,-5
1501623517339797,-1,0,-3,-2,2,1,-1,-2
1501623517339797,-3,-3,0,-2,-3,1,3,-1
1501623517362843,2,4,0,1,-4,-21,-7,1
1501623517362843,-1,-6,-4,-1,7,24,1,-2
1501623517364816,-4,-2,1,-2,-8,-27,4,1
1501623517364816,-4,-3,-4,-2,1,3,-3,-4
1501623517369831,-1,0,2,1,3,9,-8,-7
1501623517369831,-3,-1,-6,-5,-6,-3,-6,-4
1501623517378825,-1,1,-2,-1,-1,10,-1,-6
1501623517378825,-1,0,-1,4,12,28,6,-2
1501623517392864,2,1,0,-5,-14,-42,-13,-3
1501623517392864,2,1,1,3,2,4,-3,-1
1501623517398847,0,1,0,-3,0,1,-2,-2
1501623517398847,-2,0,0,1,-1,-7,0,-3
1501623517415881,1,-5,-6,-4,-4,-3,-3,1
1501623517415881,-3,-5,-2,-1,2,-6,-8,1
1501623517416880,-2,-4,-5,-2,-3,1,4,-1
1501623517416880,3,9,0,-2,-6,-7,-4,-1
1501623517428892,-2,2,1,2,5,10,8,1
1501623517428892,-2,0,-2,-2,-1,12,12,-3
1501623517438867,-5,-2,2,3,-2,-4,-12,-3
1501623517438867,3,0,-1,-3,-5,-27,-3,1
1501623517452906,-8,-8,-3,-1,-3,3,0,0
1501623517452906,3,9,0,0,3,4,2,-2
1501623517458910,-5,-5,-4,-3,-2,8,6,-6
1501623517458910,6,0,-2,-2,-3,-4,1,3
