timestamp,emg1,emg2,emg3,emg4,emg5,emg6,emg7,emg8
1501625562324343,-1,-29,8,-2,7,-5,-7,-7
1501625562324343,-2,-13,0,0,-7,-25,-10,-8
1501625562325302,0,17,-10,-1,-14,-3,6,6
1501625562325302,-8,7,0,1,5,22,8,5
1501625562326290,-1,-14,2,-5,-1,-22,-6,-3
1501625562326290,2,-14,-2,0,4,-7,-3,-4
1501625562327329,-2,13,-8,-4,-29,-42,-4,-3
1501625562327329,-5,8,2,2,26,89,0,2
1501625562339312,-1,-10,7,1,2,-6,6,3
1501625562339312,-2,-8,-1,-3,-4,-25,-1,-5
1501625562346318,-2,9,-2,2,4,14,-2,-3
1501625562346318,-7,3,-5,-7,-19,-38,5,3
1501625562355324,3,-12,8,3,10,7,1,9
1501625562355324,4,-3,0,-1,-3,-4,-7,-7
1501625562367422,6,20,-8,-2,-6,4,4,2
1501625562367422,-9,3,1,-1,-10,-33,0,0
1501625562379412,5,-15,6,1,24,44,-2,-1
1501625562379412,1,-6,-3,-1,-10,-26,1,2
1501625562382469,-6,0,-9,-2,5,24,-5,-5
1501625562382469,-5,-1,1,-3,-8,-17,-2,3
1501625562399425,-2,-5,-1,-6,-10,-20,-12,-9
1501625562399425,2,-4,1,3,6,14,9,4
1501625562406488,0,2,-2,2,3,2,1,2
1501625562406488,0,1,1,-2,-19,-41,-8,-4
1501625562445557,4,-25,13,4,44,78,3,-1
1501625562445557,5,-1,-8,1,-7,-12,-5,-2
1501625562446541,-10,23,-13,-3,-5,8,-2,-4
1501625562446541,-2,-12,2,-1,-5,-11,4,5
1501625562447541,3,-6,7,-1,0,-15,-3,0
1501625562447541,0,-4,-3,-2,-3,-27,-7,-7
1501625562450601,-1,9,-8,3,8,55,2,0
1501625562450601,-5,4,2,-2,2,13,7,6
1501625562457606,4,-18,2,-4,-10,-36,-6,-6
1501625562457606,0,-7,1,0,-7,-18,-9,-8
1501625562464570,6,19,-8,0,-5,4,5,4
1501625562464570,-5,2,1,-3,-1,16,-1,-4
1501625562473588,0,-18,8,0,4,-11,-4,-3
1501625562473588,2,1,-8,-4,-15,-34,1,-2
1501625562487629,-2,9,-7,1,5,22,-2,-1
1501625562487629,-4,-4,-1,-5,-5,1,1,-1
1501625562496576,2,-6,5,1,5,-23,0,-1
1501625562496576,-1,5,-5,0,9,23,-7,-4
1501625562502638,-3,0,-7,-3,-13,-5,-1,0
1501625562502638,3,-3,6,1,3,-1,-1,1
1501625562518608,-4,-13,-3,-5,-9,-23,2,0
1501625562518608,-4,0,-4,-2,-5,0,-1,-2
1501625562524654,-2,3,-1,-5,-7,-6,-8,-3
1501625562524654,-1,1,-1,-3,-2,-14,6,6
1501625562533619,-1,-8,0,1,11,31,7,2
1501625562533619,-5,-7,-4,1,-2,-1,-3,-3
1501625562547670,0,-5,-4,-1,-11,-1,4,6
1501625562547670,-7,6,1,-1,8,-15,-12,-9
1501625562556741,-5,-7,-1,-5,-11,-25,-8,-6
1501625562556741,7,3,3,6,14,26,8,3
1501625562562716,-8,1,-4,0,-11,-15,0,-1
1501625562562716,-3,-2,0,-2,-2,-7,4,1
1501625562578717,-2,-5,-1,-2,4,9,-5,-3
1501625562578717,4,3,-1,0,2,7,1,2
1501625562584779,-1,8,1,0,-4,-16,0,-1
1501625562584779,3,-2,3,1,7,16,-2,2
1501625562593743,-4,-2,3,-1,-8,-30,-3,-2
1501625562593743,1,1,-3,1,3,37,4,1
1501625562607793,-8,0,-2,-3,-12,-27,1,-4
1501625562607793,2,-4,-3,-4,-3,4,0,4
1501625562616744,3,-4,3,4,21,20,3,-1
1501625562616744,-7,2,-1,-2,-6,9,1,-5
1501625562622806,-1,1,-2,-1,2,10,0,1
1501625562622806,-3,-3,-1,-2,-7,-10,-4,-7
1501625562638759,-5,-4,-1,-3,-17,-43,-9,-5
1501625562638759,0,4,-3,-3,-7,-29,3,2
1501625562644778,0,5,1,5,24,49,5,2
1501625562644778,-2,-4,-1,-2,-7,-3,-4,-4
1501625562653771,1,1,1,1,-4,-10,-6,-5
1501625562653771,-3,0,-3,-1,0,-2,1,-1
1501625562667795,3,6,-2,-3,-11,-20,-2,2
1501625562667795,2,2,3,2,12,26,2,1
1501625562676801,-3,-5,-1,0,4,11,-1,-2
1501625562676801,-3,-1,-3,-2,-7,-9,0,1
1501625562682847,1,3,0,1,-3,-10,0,0
1501625562682847,-6,-9,0,2,4,12,-5,-2
1501625562698802,5,3,-2,-1,-6,-9,-4,-1
1501625562698802,1,0,-1,1,-1,-6,4,4
1501625562704861,2,4,-1,1,-3,-3,3,-1
1501625562704861,0,-2,-2,-3,-1,2,-6,-5
1501625562713813,-1,-5,-2,-2,2,15,0,0
1501625562713813,-2,-1,-1,0,5,22,7,2
1501625562728826,-2,2,0,-2,-7,-15,-10,-3
1501625562728826,6,-4,-2,-1,-2,15,2,3
1501625562736866,2,-2,0,-4,-9,-28,-3,-3
1501625562736866,5,6,-1,1,2,8,-4,3
1501625562749893,-1,-1,-3,-4,-1,14,1,0
1501625562749893,3,2,1,-1,-6,-21,0,0
1501625562758848,-4,-2,0,3,6,6,2,0
1501625562758848,-4,2,-2,-2,-3,-2,-5,-6
1501625562764908,-2,-1,-1,-1,-3,-8,0,-1
1501625562764908,1,3,5,4,1,-22,-1,-1
1501625562773855,-4,-5,-3,-1,12,26,-2,-2
1501625562773855,2,2,1,-1,-6,-4,-2,-1
1501625562787892,1,1,-2,-1,5,1,-1,2
1501625562787892,-2,-4,-2,-2,-2,-11,1,-5
1501625562795890,1,-1,1,0,-8,-28,3,5
1501625562795890,-2,1,-2,-2,1,27,0,-2
1501625562809938,-1,-4,-1,-2,-3,3,-1,-2
1501625562809938,-3,-4,-3,-1,3,-1,-5,1
1501625562818889,-3,-2,1,4,20,39,1,-5
1501625562818889,0,0,-4,-4,-9,-21,-5,-1
1501625562824914,-1,4,-1,0,3,16,2,-1
1501625562824914,0,-5,2,1,-5,-23,-5,-2
1501625562833898,6,2,-2,-1,-2,-3,4,2
1501625562833898,-3,0,-1,0,0,-4,-10,-4
1501625562846921,-1,-5,-1,-1,3,19,5,2
1501625562846921,-6,1,-3,-1,-4,-14,2,-1
1501625562855928,-5,-6,-2,-3,-5,-11,-7,-6
1501625562855928,2,5,-1,0,-1,-7,4,3
1501625562869937,3,-1,0,0,6,19,0,-3
1501625562869937,2,-9,-2,-1,-6,-10,-2,-2
1501625562878945,1,1,2,0,2,3,3,0
1501625562878945,-4,2,-5,-1,10,26,5,-1
1501625562884990,-2,0,0,-1,-9,-8,-6,-1
1501625562884990,0,-7,0,-1,-2,-4,0,-2
1501625562893940,0,-3,-1,-3,-9,-14,-4,0
1501625562893940,-3,1,-3,-2,-5,-11,-2,-4
1501625562907007,1,4,-1,-1,-8,-35,-6,0
1501625562907007,-3,-2,0,0,17,48,3,1
1501625562916015,8,2,-2,2,6,16,4,6
1501625562916015,-7,-4,-1,0,-11,-19,-3,-4
1501625562929992,-2,0,1,-3,7,10,-9,-4
1501625562929992,1,-3,1,-1,-6,-16,0,-2
1501625562939072,-1,0,-3,-3,-9,-11,-2,-4
1501625562939072,-3,-4,-2,-3,-1,-12,8,8
1501625562945076,-2,0,-2,1,0,14,2,0
1501625562945076,-1,-5,3,1,6,12,-4,-1
1501625562954084,5,1,0,-2,-7,-11,-2,3
1501625562954084,2,3,-1,-1,-3,2,0,0
1501625562967134,-2,0,-2,-2,-9,-20,-2,-3
1501625562967134,1,-3,0,0,4,11,8,6
1501625562976099,-2,-3,-3,0,-4,-8,-3,-4
1501625562976099,-1,2,-1,0,-2,-2,-1,0
1501625562990151,1,1,0,-2,-6,-9,0,0
1501625562990151,-2,-2,0,0,-2,-10,-2,-3
1501625562999100,0,1,0,1,6,27,-1,1
1501625562999100,-2,1,-2,-3,-1,3,-4,-4
1501625563005163,-2,-2,0,1,5,13,6,2
1501625563005163,2,0,-1,-2,-8,-16,-6,-2
1501625563020258,-3,-8,-4,-4,-10,-28,-2,-3
1501625563020258,1,1,1,-1,8,20,-5,-5
1501625563027261,2,3,2,-1,3,12,2,2
1501625563027261,5,-1,-1,-1,-10,-28,7,6
1501625563036226,-2,-1,-1,0,3,9,-5,-3
1501625563036226,0,4,0,3,-3,-2,-1,-2
1501625563050306,-2,-2,-1,1,6,1,2,0
1501625563050306,-1,-2,1,-4,5,25,-2,-2
1501625563059363,5,9,2,2,-11,-28,-6,-1
1501625563059363,3,4,0,-1,5,15,3,5
1501625563065320,-4,-6,-2,1,-2,-16,-2,0
1501625563065320,0,-1,-1,0,-4,-13,-3,-3
1501625563080325,-2,-1,0,1,12,27,5,2
1501625563080325,-3,-1,-2,-3,-6,-8,2,-1
1501625563087438,0,3,2,-1,-5,4,-1,-2
1501625563087438,-1,-7,-2,2,1,1,-10,-6
1501625563096471,-1,0,-3,-3,-7,-31,1,-2
1501625563096471,3,1,0,1,8,27,-1,2
1501625563109572,-2,-5,1,0,7,14,2,1
1501625563109572,-4,-1,0,-3,-3,-6,-2,-2
1501625563118577,2,4,-1,-1,-6,-17,0,-1
1501625563118577,1,3,1,1,-6,-17,-1,1
1501625563124582,-4,-4,1,0,1,-2,-6,-3
1501625563124582,3,4,-1,-2,-4,-8,-1,0
1501625563139593,-4,-10,-4,-2,10,34,3,-3
1501625563139593,-2,3,-1,-1,-5,-12,1,1
1501625563147598,-2,0,3,1,-4,-6,1,2
1501625563147598,10,5,1,1,0,7,0,1
1501625563156549,-6,-5,-3,-1,-5,-8,-2,-1
1501625563156549,-2,-5,-1,-1,-2,-3,-6,-4
1501625563169617,-1,3,-1,-5,-17,-12,-5,-1
1501625563169617,-4,-6,-2,-1,10,17,3,-2
1501625563178569,1,-1,-2,0,-7,-5,-3,-1
1501625563178569,-1,0,-3,-1,0,6,-1,-1
1501625563184627,0,0,-4,-2,-10,-30,-1,-3
1501625563184627,-4,-12,-3,-1,8,18,-2,-5
1501625563199638,7,8,-1,1,-7,-5,3,6
1501625563199638,-9,-1,-1,-2,1,1,-9,-9
1501625563207643,2,1,2,-1,-1,-2,6,5
1501625563207643,-5,-9,-4,0,10,6,-2,-2
1501625563216689,-4,-4,-7,-5,-3,-5,2,0
1501625563216689,2,-1,-2,1,3,8,5,2
1501625563229693,-2,1,2,-2,-1,3,-5,-3
1501625563229693,0,-1,-1,-1,-4,-22,-1,-1
1501625563238694,-4,1,-3,-3,-5,-2,-4,-4
1501625563238694,-3,4,1,1,7,14,1,-3
1501625563244750,-1,-7,0,0,6,28,2,0
1501625563244750,-4,-4,0,-3,-7,-27,-7,-3
1501625563259761,-1,5,-4,-1,-9,-11,2,0
1501625563259761,-2,2,-1,-3,0,-3,-4,-2
1501625563267768,2,-5,2,2,3,-10,-2,-2
1501625563267768,-3,4,-1,-2,-2,5,-1,-4
1501625563276854,2,0,-1,0,-5,-16,0,-1
1501625563276854,-3,-2,-1,-1,1,11,1,0
1501625563289864,-11,-6,2,2,4,6,-2,-3
1501625563289864,4,-1,-1,-2,-3,-8,7,5
1501625563298818,1,1,-1,-1,-2,-3,-3,-3
1501625563298818,-3,2,-1,0,-6,-15,1,2
1501625563304876,-1,-6,-4,-2,10,22,-5,-5
1501625563304876,1,4,1,-1,-10,-8,-2,-1
1501625563319885,0,-2,-1,3,12,11,-1,-2
1501625563319885,0,-1,1,-2,-11,-19,-2,2
1501625563327866,1,0,1,-1,0,-7,-2,1
1501625563327866,-5,-3,-2,-1,1,5,-1,-4
1501625563336894,-4,-3,-5,-3,-9,-10,1,-3
1501625563336894,-3,-3,-1,-1,7,20,1,0
1501625563349910,0,-3,-1,-2,0,-5,-1,-1
1501625563349910,-5,-7,-1,0,-5,-14,-3,-3
1501625563358870,-2,6,-2,0,6,21,3,2
1501625563358870,-8,-2,-3,-2,-4,-5,-2,-4
1501625563364877,5,-1,2,-2,2,13,-3,-3
1501625563364877,0,-1,0,5,11,15,8,6
1501625563379887,0,0,-2,0,-7,-5,-1,-2
1501625563379887,-2,0,0,-1,-6,-6,-4,-2
1501625563386892,-3,-4,1,-2,-1,-12,2,2
1501625563386892,1,-1,1,0,-1,-8,-6,-3
1501625563395887,-5,-2,-4,-3,-3,3,-5,-3
1501625563395887,5,2,1,1,3,1,4,1
1501625563409894,-1,-2,1,-1,-1,-7,-1,-1
1501625563409894,1,-1,-3,-3,-2,5,0,1
1501625563418902,2,2,-1,1,-1,-9,-4,-1
1501625563418902,0,2,-2,-1,-3,5,-3,-3
1501625563432912,1,-5,1,-2,-9,-18,-2,-2
1501625563432912,0,-1,2,3,13,13,1,-1
1501625563439974,2,1,0,0,-4,4,-1,1
1501625563439974,0,1,-3,0,-4,-7,1,2
1501625563455985,-2,0,1,0,0,-17,-2,-3
1501625563455985,0,-2,-2,-3,-5,-8,-3,-4
1501625563457944,-5,-3,-7,-4,-7,-5,0,-1
1501625563457944,0,-3,1,1,3,0,2,3
1501625563469938,7,-1,3,0,2,11,2,2
1501625563469938,-3,-1,-3,0,-1,-3,-3,-3
1501625563478945,-2,-2,-3,0,-2,-5,-5,-1
1501625563478945,1,2,-2,-3,-1,13,2,1
1501625563493008,0,-3,-1,1,1,0,2,3
1501625563493008,-2,-2,-1,-1,0,8,2,-2
1501625563499958,2,-1,-4,1,-3,1,0,-1
1501625563499958,-2,-5,-2,0,1,3,0,0
1501625563516026,-12,-7,0,-3,3,5,-2,-6
1501625563516026,8,6,0,-1,-5,-24,-3,4
1501625563517981,-1,5,-2,1,1,14,3,0
1501625563517981,-1,1,-1,-1,-5,-19,-6,-2
1501625563529996,-2,-3,2,0,5,12,-1,-2
1501625563529996,-1,-1,1,0,-2,6,1,-3
1501625563538997,-3,4,-3,-1,-1,-2,-2,-2
1501625563538997,4,2,-1,-1,-2,-2,-1,-1
1501625563553049,-1,-3,-2,-1,-4,-12,1,-1
1501625563553049,-1,-2,-1,-1,2,8,-5,-3
1501625563560056,1,4,-2,-1,-2,6,3,0
1501625563560056,-3,-3,-2,-1,1,2,1,-1
1501625563576069,2,-4,1,-3,-8,-24,1,1
1501625563576069,-1,-4,-2,-2,9,23,-4,-2
1501625563578014,-3,4,-2,0,-2,-3,0,-1
1501625563578014,-1,1,-3,-4,-2,4,4,1
1501625563590079,0,-3,-2,-3,5,-4,-1,0
1501625563590079,0,-2,0,0,-3,-9,-3,-3
1501625563599041,0,2,-3,1,2,9,1,-2
1501625563599041,5,-3,-1,-2,-7,-13,0,4
1501625563613092,0,1,3,2,6,16,2,-1
1501625563613092,-4,-4,-1,0,-7,-21,0,-2
1501625563620101,-1,4,0,1,7,22,-1,-2
1501625563620101,-6,-3,-1,-1,-1,-6,-1,-2
1501625563636111,0,-5,-1,-2,-7,-7,-2,-2
1501625563636111,-4,-7,-3,-2,-6,-25,-4,-3
1501625563638056,2,2,-2,1,6,16,6,2
1501625563638056,-2,2,-1,-1,-5,-2,-2,-2
1501625563650122,-2,-2,2,1,7,3,-1,1
1501625563650122,-6,-4,-4,-2,-10,-19,-5,-4
1501625563659085,-1,0,-1,2,9,26,2,2
1501625563659085,-2,-3,-5,-5,-7,1,-2,-5
1501625563672094,-1,0,4,1,5,-22,-2,0
1501625563672094,1,-1,1,1,8,22,-3,-3
1501625563681100,-4,1,-3,-4,-13,-15,0,-3
1501625563681100,-1,2,0,1,7,8,-1,1
1501625563696099,2,-5,-1,0,-5,8,1,0
1501625563696099,-2,-3,-1,-2,-2,-10,3,1
1501625563698113,-1,2,-3,-2,0,5,-1,1
1501625563698113,0,4,2,-1,-2,-4,-4,-3
1501625563710106,-2,-5,-1,-2,-3,-12,-5,-2
1501625563710106,-5,-2,1,-2,-1,3,4,3
1501625563719115,2,-1,-2,1,-5,-3,-4,-2
1501625563719115,-2,6,2,1,-1,-1,3,2
1501625563732136,1,-1,-1,-2,2,-1,-1,-3
1501625563732136,0,-3,-1,0,-3,1,-2,-1
1501625563741128,1,3,-3,-3,-7,-13,-2,-1
1501625563741128,-2,1,1,0,4,10,0,2
1501625563756194,-3,-6,0,-1,1,-3,0,-1
1501625563756194,1,-2,0,-2,-1,1,0,0
1501625563758153,-3,4,-1,1,-4,-7,-7,-4
1501625563758153,2,-2,-2,0,0,-1,1,1
1501625563770204,-5,-8,-4,-3,0,7,1,-1
1501625563770204,7,5,1,2,-4,-9,-1,4
1501625563779210,-5,0,-2,1,10,7,-2,-1
1501625563779210,-3,-5,-1,1,6,2,-2,-2
1501625563792270,1,-3,0,-3,-5,-3,1,-2
1501625563792270,-2,0,-3,-1,3,13,1,-4
1501625563801235,-3,-1,-4,-1,-9,-12,0,1
1501625563801235,-4,2,-2,0,-3,-4,-8,-4
1501625563816253,0,-10,-2,-1,1,5,-1,-1
1501625563816253,4,6,1,-2,-5,-22,-2,-1
1501625563818252,0,4,-1,0,6,9,-1,-1
1501625563818252,-2,-4,-3,-4,-7,-6,-2,-2
1501625563830296,-1,-7,0,0,2,-3,-3,-1
1501625563830296,-1,-5,-2,-2,-3,-7,0,-2
1501625563839284,-3,6,-1,2,5,21,1,1
1501625563839284,3,0,2,0,2,4,1,1
1501625563852313,-3,-4,0,0,-3,-6,-2,-1
1501625563852313,1,2,-1,-1,1,4,-5,-4
1501625563861264,-2,3,-4,-2,-13,-12,1,-1
1501625563861264,1,0,-1,-1,4,5,-1,1
1501625563876293,1,-2,1,2,2,-11,1,4
1501625563876293,-1,-4,-2,-1,8,10,0,-4
1501625563878286,0,4,-2,-3,-13,-20,1,2
1501625563878286,-3,-2,-3,-2,2,23,1,-1
1501625563890342,-2,1,0,-4,-5,-4,-6,-5
1501625563890342,-2,-5,-2,2,10,5,-2,-2
1501625563899304,1,1,-4,-3,-5,-2,-1,1
1501625563899304,1,-3,1,2,-2,-5,2,1
1501625563912356,2,3,0,-4,-11,-12,-4,-2
1501625563912356,-2,-3,-2,-2,-4,-13,-2,-2
1501625563921361,3,4,1,2,11,32,8,4
1501625563921361,-4,-3,-2,-4,-11,-18,-5,-2
1501625563936428,0,-6,0,1,2,1,0,2
1501625563936428,-2,-1,-3,-3,-9,-15,-3,-1
1501625563938392,-1,2,-4,-1,0,-4,-2,-4
1501625563938392,1,4,0,1,3,19,12,7
1501625563950382,0,-2,-2,-4,-1,4,-4,-4
1501625563950382,-2,-1,2,0,-7,-5,6,4
1501625563959403,-2,0,-3,-4,-4,-3,-6,-2
1501625563959403,-1,0,-3,-3,6,3,-1,0
1501625563972456,-2,-4,1,0,1,4,-1,-1
1501625563972456,0,-1,3,-1,-8,-3,-3,-3
1501625563981404,2,-2,-5,-4,-2,-4,0,1
1501625563981404,1,7,1,1,-1,1,-6,-2
1501625563995414,-1,-4,-1,0,4,-4,3,-1
1501625563995414,-3,-1,1,-1,-18,-16,-1,-3
1501625564002419,3,0,0,1,14,19,-3,0
1501625564002419,-1,4,-2,-3,-13,-26,0,0
1501625564009438,1,-3,1,2,12,9,-3,1
1501625564009438,-1,-2,-3,-3,-13,-17,5,2
1501625564018445,-4,-1,-1,0,11,10,-5,-3
1501625564018445,-2,1,-3,0,-4,-3,4,-1
1501625564032454,-2,-5,-2,-3,-12,-18,-2,0
1501625564032454,-2,-2,-2,-1,17,22,-3,-2
1501625564041446,-1,1,-1,2,-6,-5,2,5
1501625564041446,-3,-2,-2,0,0,7,-1,-3
1501625564055514,5,-6,-2,-3,-20,-28,-4,-3
1501625564055514,-1,0,3,3,23,19,5,4
1501625564062462,-4,0,-5,-3,-14,-14,-2,-3
1501625564062462,-7,-2,-2,-1,14,20,-6,-2
1501625564069484,-1,-1,-1,0,-2,-4,5,-2
1501625564069484,-1,-2,-1,1,-2,-7,-9,-6
1501625564078472,-2,0,-3,-2,-14,-8,7,2
1501625564078472,1,3,-1,1,-1,-11,1,3
1501625564092541,2,-5,0,-2,1,5,-3,-2
1501625564092541,2,-1,-2,-2,6,-8,-6,-2
1501625564101499,-7,-1,1,2,5,13,0,-9
1501625564101499,3,1,-2,-3,-4,-11,-2,1
1501625564115522,-5,-2,1,2,15,21,2,-2
1501625564115522,5,-2,2,-2,-16,-13,-3,2
1501625564122524,0,7,-4,-1,-13,-26,-6,-5
1501625564122524,1,2,1,1,20,29,3,1
1501625564129509,0,-5,0,-3,-19,-28,-1,0
1501625564129509,-3,-6,-2,-1,16,36,3,-2
1501625564138579,-3,-4,-2,-1,-7,-8,-3,1
1501625564138579,0,5,-1,-4,-19,-28,-3,-4
1501625564152583,-3,3,0,-4,-5,-19,-2,-2
1501625564152583,-5,-7,0,3,26,43,-3,-6
1501625564161531,8,3,-2,-3,-11,-10,9,7
1501625564161531,-6,-7,-5,-1,-2,4,-1,-2
1501625564175578,0,-7,2,0,3,4,-3,3
1501625564175578,4,2,2,-1,-22,-40,-5,-3
1501625564182603,-2,9,2,4,27,25,-4,-2
1501625564182603,-1,-10,-1,-1,6,21,0,3
1501625564198618,-1,1,0,1,-2,-4,-2,-3
1501625564198618,-2,-5,-1,0,5,-5,6,2
1501625564200559,1,1,-4,-2,-6,10,-6,-2
1501625564200559,-9,3,-4,-4,-1,8,2,-2
1501625564212583,8,-6,-1,-1,2,-9,-4,0
1501625564212583,-2,-6,-3,0,-9,-6,2,1
1501625564221591,1,4,0,-3,-11,-25,2,1
1501625564221591,1,4,0,1,9,16,-2,-2
1501625564235641,-6,-8,-3,0,11,28,5,-4
1501625564235641,-4,0,-2,-5,-17,-30,-6,-6
1501625564242645,-6,-3,-3,-2,2,9,0,-3
1501625564242645,4,-2,0,-2,-18,-17,-2,2
1501625564258659,3,0,2,2,9,-6,-4,2
1501625564258659,1,-1,3,1,3,-8,8,2
1501625564260616,-4,3,-2,1,15,19,0,2
1501625564260616,-1,1,-1,-2,-4,2,-3,-5
1501625564272624,1,-4,1,1,-5,-2,2,1
1501625564272624,-5,-2,-4,-2,-1,1,-9,-5
1501625564281629,4,3,-1,-2,-16,-17,0,4
1501625564281629,-1,-4,0,1,-7,-10,2,2
1501625564295640,-5,-8,-1,-2,7,-11,-4,-3
1501625564295640,1,1,3,4,17,40,5,3
1501625564302686,1,4,-6,-8,-31,-35,-1,-4
1501625564302686,0,-3,-3,0,18,37,0,-1
1501625564318698,0,3,1,2,3,2,4,4
1501625564318698,-2,-3,-4,-2,-8,-13,-4,-1
1501625564320646,-1,1,0,1,-2,0,0,0
1501625564320646,-10,3,-1,-1,-1,0,-1,-4
1501625564332710,8,3,2,-2,-7,-10,2,2
1501625564332710,11,-2,-1,0,0,-11,-4,7
1501625564341673,-3,-1,-1,1,20,46,1,-1
1501625564341673,-2,-2,-1,-1,-15,-29,-4,-1
1501625564355725,-3,-3,-1,-2,3,18,-4,-5
1501625564355725,-3,-2,-5,-4,-17,-21,0,-4
1501625564362673,-1,-2,-1,0,5,8,-4,-2
1501625564362673,2,3,3,3,12,17,4,6
1501625564378685,-3,-3,-2,-4,-15,-12,-5,-4
1501625564378685,-2,-1,-1,1,17,-1,0,-3
1501625564380703,-1,0,0,0,-13,-7,10,4
1501625564380703,5,1,-5,0,-1,-12,-2,-2
1501625564392752,-2,-6,-1,-2,8,26,-2,-1
1501625564392752,-1,1,1,0,-12,-28,-4,-3
1501625564401727,-14,-2,-6,-2,3,16,-3,-2
1501625564401727,8,-1,-1,-3,-6,0,7,11
1501625564415725,-4,0,2,3,0,-12,3,-2
1501625564415725,0,-1,-3,-3,-1,1,-2,-1
1501625564422715,-1,5,-2,-1,-13,-22,-3,0
1501625564422715,0,-1,0,0,3,13,-5,-2
1501625564438741,-6,-8,-2,0,10,8,-4,-4
1501625564438741,-1,2,-2,-2,-5,6,0,-1
1501625564440743,3,3,0,2,2,-1,4,2
1501625564440743,-1,6,1,-4,-28,-54,-7,-2
1501625564452881,-2,-4,-1,-2,11,8,-2,-1
1501625564452881,5,-5,-1,2,25,54,3,0
1501625564461824,-1,3,-1,-1,-9,-18,-6,-6
1501625564461824,-4,-5,-1,-3,-1,-3,0,-3
1501625564475841,2,-2,-2,-2,-19,-42,-2,-2
1501625564475841,4,1,-1,-2,1,8,3,2
1501625564482866,-2,4,-1,-1,3,6,-1,-2
1501625564482866,-5,-2,1,0,4,11,-3,-3
1501625564498858,8,1,-2,-2,-19,-35,-3,3
1501625564498858,-10,-4,-1,5,32,66,8,2
1501625564500853,-4,3,1,-1,-12,-20,-2,1
1501625564500853,-2,1,-1,1,9,4,-2,-1
1501625564512875,4,-3,0,1,6,17,-2,0
1501625564512875,-2,-3,-5,-5,-21,-25,-5,-5
1501625564521920,1,-3,-5,-3,8,12,3,-1
1501625564521920,-2,-1,1,-2,-4,-2,-1,-1
1501625564535934,-6,-3,-3,-3,1,4,-4,-3
1501625564535934,4,-3,-3,-3,-6,-15,2,0
1501625564542907,-2,1,1,-1,-4,8,-1,-5
1501625564542907,-3,-1,-5,-7,-5,-21,-6,-4
1501625564558948,-2,0,1,0,-1,5,6,3
1501625564558948,-1,-1,1,1,-1,-26,-4,-3
1501625564560911,-5,0,-2,2,14,31,-3,-2
1501625564560911,2,-1,2,1,-2,7,6,4
1501625564572903,1,-2,2,1,3,-2,-8,-7
1501625564572903,-12,-5,-4,-4,-14,-19,-3,-3
1501625564581909,3,0,-3,-3,-7,-13,-2,-1
1501625564581909,0,-3,-1,0,7,11,0,-2
1501625564595938,4,-3,0,3,13,9,1,-1
1501625564595938,2,5,2,-1,-11,-3,0,-1
1501625564602032,0,5,0,-2,-2,-21,-5,-2
1501625564602032,2,7,4,2,9,40,3,1
1501625564619042,-3,-4,0,-2,-7,-21,-1,-1
1501625564619042,1,-4,-3,-1,-3,-2,-4,-2
1501625564620989,2,2,0,1,10,13,1,2
1501625564620989,0,1,0,-2,-22,-31,-2,-2
1501625564632044,3,-1,0,1,10,10,-1,3
1501625564632044,1,-2,-1,3,15,25,7,1
1501625564641040,0,-3,-4,-2,-11,-6,1,4
1501625564641040,-2,-1,-3,-2,-12,-20,-1,-2
1501625564656034,-5,-2,-3,-3,17,24,2,-5
1501625564656034,-2,-6,-4,-3,-16,-12,-1,-2
1501625564662028,1,1,0,-2,-3,0,-2,-3
1501625564662028,-3,-3,-1,-2,-10,-11,0,1
1501625564679030,-5,-2,1,2,18,13,-2,-3
1501625564679030,1,-1,-1,-2,-11,-11,-2,0
1501625564680046,-3,-4,-3,-3,-6,3,-1,-3
1501625564680046,0,-4,1,2,7,5,1,2
1501625564692100,-1,0,-1,-2,-13,-11,-1,-1
1501625564692100,-4,0,-3,-1,-4,-11,-3,-1
1501625564701101,-2,0,-2,1,12,17,-7,0
1501625564701101,-5,-1,-3,-5,-16,-24,0,-3
1501625564716098,-6,-6,3,3,21,17,1,-3
1501625564716098,8,3,0,2,5,9,1,3
1501625564722119,-1,-1,-3,-2,-8,-9,-2,0
1501625564722119,-5,-6,0,-1,1,-12,-4,-3
1501625564739131,-1,1,-1,-1,0,4,3,1
1501625564739131,2,2,-3,-2,-7,-16,-7,-5
1501625564740089,-1,1,0,0,-1,-4,1,0
1501625564740089,5,-2,2,-2,1,-1,1,2
1501625564752083,-4,-5,-3,-1,8,4,0,0
1501625564752083,2,5,2,5,-5,-15,5,2
1501625564761104,2,-2,-6,-2,10,13,-1,0
1501625564761104,1,-2,4,2,0,5,-1,-1
1501625564776130,8,-1,-2,-2,-14,-6,1,4
1501625564776130,-5,2,-4,-6,-15,-21,-8,-6
1501625564782162,-3,0,0,1,1,3,-2,-1
1501625564782162,-1,-4,1,-1,6,15,0,0
1501625564799174,1,-3,-3,-4,-14,-27,-2,-3
1501625564799174,-3,-3,-2,-1,5,17,-3,-1
1501625564800132,-2,3,1,-2,-9,-5,2,0
1501625564800132,1,2,-1,0,6,-1,-1,1
1501625564812138,1,1,-2,-5,-22,-10,-5,-5
1501625564812138,2,0,1,5,33,37,2,2
1501625564821146,-2,-2,1,-1,-2,-2,-3,-3
1501625564821146,-1,2,0,-1,11,16,7,4
1501625564835160,-1,-3,-3,-2,-12,-8,2,-5
1501625564835160,2,-1,-4,-3,-7,-12,0,1
1501625564844168,-1,6,4,3,12,16,-6,-3
1501625564844168,-2,-3,-2,-3,2,1,0,-2
1501625564859214,0,-3,0,0,-6,-9,3,3
1501625564859214,-4,2,-5,-5,-19,-21,0,-4
1501625564860158,4,10,7,1,23,15,-7,-2
1501625564860158,4,-5,1,-1,-11,-8,2,2
1501625564872225,7,5,2,0,5,10,-2,0
1501625564872225,-4,-1,-5,-1,-8,-5,-5,-3
1501625564881209,-1,-4,-6,-1,1,5,5,2
1501625564881209,-3,-1,1,-1,-5,-16,-4,-2
1501625564895184,-4,-2,-3,-3,2,3,-1,-1
1501625564895184,1,-2,-1,1,2,3,2,0
1501625564904190,-1,-1,-3,-4,-22,-31,5,3
1501625564904190,-1,-3,2,2,15,18,-3,-1
1501625564918342,-1,-5,1,0,-1,-8,-5,-4
1501625564918342,-4,6,-7,-3,-9,-4,-1,-1
1501625564925349,-1,-1,2,1,2,2,-2,1
1501625564925349,0,-2,3,2,-5,-14,-4,0
1501625564932433,-2,-2,-3,-1,-1,-3,-4,-6
1501625564932433,-1,2,-2,1,4,19,-2,-1
1501625564941383,-5,-3,-5,-3,-1,-3,5,1
1501625564941383,-2,2,3,1,-4,-10,-5,-2
1501625564955399,-6,-4,1,1,3,5,-3,-1
1501625564955399,1,7,1,2,9,8,-1,-2
1501625564964405,-1,-1,-1,-2,-10,-1,-1,0
1501625564964405,-3,-7,0,-2,-1,-7,-6,-3
1501625564978409,0,-4,0,-1,0,-5,1,2
1501625564978409,-1,-1,-4,-2,-7,2,1,0
1501625564985414,1,0,1,5,5,-9,1,5
1501625564985414,-2,-6,-2,-2,6,12,-3,-4
1501625564992550,0,0,-2,-1,-6,-11,-4,-3
1501625564992550,0,1,-4,-2,0,1,2,1
1501625565001525,3,4,0,1,-7,-1,-1,0
1501625565001525,-5,-5,-2,-4,5,-3,-2,-3
1501625565014539,0,-2,-1,-2,-8,14,4,5
1501625565014539,0,1,1,1,6,-12,-7,-3
1501625565023584,-2,-3,-4,-3,-1,20,1,-2
1501625565023584,-1,-3,3,2,10,8,3,1
1501625565038593,-1,0,-3,0,-9,-27,0,0
1501625565038593,-1,3,-3,-2,6,23,-1,-1
1501625565044556,-2,-3,0,-1,-11,-12,1,1
1501625565044556,-2,-10,0,0,15,32,0,0
1501625565052562,3,2,-1,-2,-11,-16,1,1
1501625565052562,2,4,-1,-1,-8,-16,2,3
1501625565061552,-4,-1,-4,-2,5,7,-3,-4
1501625565061552,-1,-6,0,0,5,3,2,0
1501625565074584,2,-1,3,1,0,1,-2,-1
1501625565074584,-3,0,-4,-3,-15,-18,1,-1
1501625565083580,1,0,-1,-3,-12,-1,-5,1
1501625565083580,-8,-3,-2,-2,-2,-18,-3,-6
1501625565097632,2,-7,-1,1,2,2,-1,3
1501625565097632,2,3,-3,0,0,-6,3,0
1501625565104638,-5,0,-2,-2,-7,-7,1,0
1501625565104638,2,0,1,-2,7,17,-5,-2
1501625565121649,-3,-2,-1,1,12,9,-1,-1
1501625565121649,-2,-1,-5,-1,4,21,-1,-1
1501625565122611,2,2,-1,-1,-9,-10,0,-1
1501625565122611,-2,-1,-1,-4,-12,-21,-3,-1
1501625565134660,-3,-1,0,1,7,10,-2,-2
1501625565134660,2,-2,-6,-5,-7,-2,3,-1
1501625565143665,-10,3,-2,-2,-6,-4,-4,-6
1501625565143665,3,-2,0,3,6,-8,2,1
1501625565158654,-1,1,1,-1,-5,-4,-2,-1
1501625565158654,-4,-4,-3,0,6,-2,-5,-3
1501625565164647,-1,-4,-1,-1,1,9,2,1
1501625565164647,1,-3,3,1,-10,-12,0,1
1501625565181637,0,0,-2,0,8,15,-1,-4
1501625565181637,-4,4,0,0,-12,-14,0,0
1501625565182637,-2,-2,-4,-4,0,2,2,-1
1501625565182637,2,-5,0,0,2,2,1,0
1501625565194647,2,4,-2,-2,0,-4,1,0
1501625565194647,-9,-1,-2,-2,-5,2,-3,-4
1501625565203668,-2,-1,-1,0,9,10,-2,-2
1501625565203668,-1,-3,-1,-1,-3,-5,-1,-2
1501625565217677,-4,-5,-1,-2,-3,-15,-2,-3
1501625565217677,0,0,-1,-1,3,13,3,-1
1501625565224683,1,-4,-2,-1,-7,-7,-3,0
1501625565224683,-2,1,0,-4,-10,-22,-3,-1
1501625565241694,-3,-2,0,0,14,23,-1,-2
1501625565241694,4,2,-2,0,-3,-4,0,2
1501625565242680,-2,2,0,2,9,7,2,1
1501625565242680,5,-7,2,-2,-9,-19,-2,-1
1501625565254703,-6,-3,-3,-3,0,-7,0,-4
1501625565254703,2,2,-3,0,-4,3,-7,-2
1501625565263695,-4,5,-2,-2,-2,-11,1,0
1501625565263695,-1,-5,0,-1,3,3,-2,2
