timestamp,emg1,emg2,emg3,emg4,emg5,emg6,emg7,emg8
1501623661459554,-2,-2,-3,-7,2,17,-4,-6
1501623661459554,-12,-13,-7,-1,-2,-24,-5,-4
1501623661464618,2,-3,-1,6,15,4,-10,-1
1501623661464618,-1,-8,-3,-4,-8,-1,10,4
1501623661465589,4,2,-2,-4,-3,9,-15,-2
1501623661465589,11,12,4,9,9,3,-3,1
1501623661467559,-8,-5,-7,-15,-13,-12,-24,-13
1501623661467559,-7,-12,-5,4,4,10,25,-2
1501623661477626,-1,2,8,5,-6,-14,-9,7
1501623661477626,7,2,2,4,22,0,-12,9
1501623661489603,-2,-5,-6,-4,-9,5,-4,-9
1501623661489603,9,14,10,4,-5,-35,-34,-1
1501623661492634,-9,-7,-8,-4,2,2,13,-7
1501623661492634,-12,-12,-5,4,6,9,-19,-6
1501623661509617,-5,-2,-2,-14,-20,-7,-6,-4
1501623661509617,11,8,1,-1,7,-3,-20,-2
1501623661516624,5,15,6,4,-6,-12,16,6
1501623661516624,1,2,2,3,-3,3,46,3
1501623661524628,-5,-6,-5,-4,7,17,10,0
1501623661524628,-8,-9,-4,-4,-9,-6,-19,-5
1501623661537666,1,-1,-3,1,20,14,2,-4
1501623661537666,-1,-5,-3,-10,-24,5,10,-4
1501623661547623,-3,-4,5,7,7,-15,-34,1
1501623661547623,-4,-2,-2,-1,4,7,42,0
1501623661585642,0,4,1,-2,-5,4,12,5
1501623661585642,1,-1,-4,-12,-19,-2,9,0
1501623661585642,-12,-8,-7,-4,1,5,-24,-4
1501623661585642,-1,7,3,5,5,9,33,2
1501623661586647,6,3,-1,-1,-8,-5,-10,-3
1501623661586647,-3,-9,-2,0,0,1,-11,0
1501623661589674,5,7,3,-5,10,-11,-9,3
1501623661589674,-11,-9,-3,-1,-4,1,1,-4
1501623661597711,-8,-7,-1,1,3,11,-6,-1
1501623661597711,13,16,6,5,2,-12,-52,-8
1501623661606689,-2,-4,-1,-1,1,25,30,-5
1501623661606689,5,4,2,4,12,-4,-17,-1
1501623661612718,-6,-5,1,-1,1,-8,-2,-2
1501623661612718,-6,-8,-4,1,5,17,36,-9
1501623661628704,3,12,3,-6,-13,-32,-41,1
1501623661628704,-5,-6,-7,-10,-12,10,38,-3
1501623661634705,-1,-6,-6,-8,-9,3,-6,-2
1501623661634705,-7,-3,0,5,11,-3,12,1
1501623661649692,6,6,-1,0,-11,7,-22,2
1501623661649692,-1,-3,-2,-4,-10,-17,-30,-5
1501623661657752,-4,-7,-7,2,11,0,11,2
1501623661657752,1,5,3,0,-6,0,18,4
1501623661666700,-3,-10,-1,7,9,0,-3,3
1501623661666700,7,6,7,2,-2,6,20,4
1501623661672764,4,8,2,8,5,13,8,-6
1501623661672764,-13,-1,-3,-8,-5,7,0,-4
1501623661688744,7,-3,-3,3,4,4,8,-6
1501623661688744,-5,0,-2,-2,14,1,-14,7
1501623661694780,6,0,-3,-1,-3,0,31,3
1501623661694780,-4,3,-1,0,-9,-13,9,5
1501623661709792,-16,-6,-4,-4,-1,-7,-8,-6
1501623661709792,24,14,3,2,12,1,-11,0
1501623661717736,-3,2,2,-4,-7,-13,-15,0
1501623661717736,-4,-7,-5,0,3,-9,-26,-3
1501623661726772,0,-1,0,-3,-5,0,32,1
1501623661726772,-8,-8,-4,-1,2,-3,-27,-3
1501623661732778,-4,3,-2,-2,-4,-5,-26,-9
1501623661732778,5,5,2,1,1,21,40,12
1501623661748789,6,6,3,1,-1,3,-1,3
1501623661748789,-5,-6,-1,1,-6,-15,11,5
1501623661754822,3,0,1,-2,11,-1,-23,-4
1501623661754822,-3,-5,-3,-11,-14,-2,-9,-3
1501623661769776,-12,-13,-9,0,5,1,-4,-7
1501623661769776,0,0,-1,1,-5,5,8,1
1501623661777840,-2,-1,1,3,5,-16,-1,2
1501623661777840,2,-2,-2,0,7,6,-14,-3
1501623661786897,-1,1,3,-2,-7,-27,23,2
1501623661786897,1,3,-1,-4,-8,11,-17,-7
1501623661792959,0,2,3,1,2,-3,-11,4
1501623661792959,3,2,0,1,1,-8,6,-1
1501623661808944,4,0,-1,1,-3,-3,-27,0
1501623661808944,-6,-7,-6,-3,-6,15,-6,-1
1501623661814977,1,-1,2,0,-3,9,28,2
1501623661814977,-1,-8,-3,6,8,0,-25,0
1501623661829969,2,4,0,-4,-1,-7,-5,2
1501623661829969,-4,-3,-2,-2,-9,-12,-1,-1
1501623661837933,2,1,-2,-2,-2,-24,-33,-3
1501623661837933,-12,-12,-2,1,-8,8,-23,-11
1501623661846940,3,8,1,-1,13,9,0,1
1501623661846940,-3,-6,-4,-8,-14,-4,27,4
1501623661852972,-4,-4,-2,0,1,14,22,-2
1501623661852972,8,9,-1,2,2,-5,38,8
1501623661868955,-6,-6,-3,-2,-3,15,0,-3
1501623661868955,4,8,8,6,10,-6,-11,-2
1501623661875022,-7,-6,-2,-2,-5,-16,-4,-1
1501623661875022,-3,-9,-5,-4,0,-23,-33,-8
1501623661890028,3,4,2,1,-4,13,44,5
1501623661890028,-1,-2,-2,-1,19,18,-12,-4
1501623661897036,-1,2,-1,-4,-18,-14,1,7
1501623661897036,3,1,2,3,9,4,-5,2
1501623661906982,1,-4,-2,-5,-17,-9,-16,2
1501623661906982,-5,-2,-1,14,19,-14,-18,-9
1501623661919999,2,1,-5,-21,-18,22,-13,-5
1501623661919999,1,9,0,-2,-11,-20,5,2
1501623661928998,-1,-4,0,3,1,8,29,-2
1501623661928998,-3,-3,-3,-2,-1,10,-16,-2
1501623661935001,2,-1,2,10,7,-10,-2,1
1501623661935001,-2,2,0,3,20,20,19,-2
1501623661950012,-8,-14,-5,-6,-18,-36,-34,-11
1501623661950012,2,2,-1,-6,-7,-1,9,6
1501623661958048,-4,0,-1,4,7,-6,-6,-3
1501623661958048,4,4,1,-4,-10,-3,4,-4
1501623661966055,-2,-1,4,13,20,9,-1,-1
1501623661966055,3,-3,3,-9,-17,-20,-4,-3
1501623661980092,-17,-20,-10,-5,4,23,-1,2
1501623661980092,16,19,9,3,7,8,33,6
1501623661989070,6,5,-1,2,7,-4,-14,-6
1501623661989070,0,5,-1,1,-8,5,45,4
1501623661995106,3,9,4,2,6,-2,-12,-2
1501623661995106,-9,-10,-7,-5,-6,-2,-15,-5
1501623662010117,0,1,0,1,-3,-7,-5,1
1501623662010117,0,-3,-3,-8,-8,8,9,-3
1501623662017064,5,2,2,7,8,2,17,-1
1501623662017064,0,-5,2,1,-3,0,-27,4
1501623662026121,-3,-2,-5,-7,-12,-4,12,0
1501623662026121,-4,-3,-3,-2,3,-2,4,-1
1501623662040137,1,0,-3,-6,-12,5,17,0
1501623662040137,-2,0,0,2,0,-2,-12,-3
1501623662049084,-4,-5,-2,-4,-5,24,5,0
1501623662049084,0,1,2,0,3,-24,-11,3
1501623662055147,2,4,2,4,9,13,13,0
1501623662055147,-3,-3,-3,-4,-15,-20,-23,-1
1501623662070125,2,0,-1,5,4,10,-8,-1
1501623662070125,-2,0,0,4,9,-7,1,-2
1501623662077163,5,1,1,1,-6,1,1,3
1501623662077163,-5,-4,-4,-4,0,-9,1,-6
1501623662086115,-4,-1,-3,-3,1,8,-2,-2
1501623662086115,-2,-1,-2,2,0,12,-1,2
1501623662100126,1,0,1,2,4,-24,0,1
1501623662100126,0,-4,2,-3,-8,-11,17,0
1501623662109153,-2,0,-1,-3,-6,30,9,-2
1501623662109153,3,-2,-2,-3,-3,-1,-8,-3
1501623662115188,-4,-1,-4,-3,1,28,52,0
1501623662115188,-2,-1,-3,-3,-3,10,24,1
1501623662130200,0,2,-1,-1,2,-13,-15,2
1501623662130200,3,-2,2,2,-3,-4,-30,1
1501623662137208,-1,-1,-2,1,-1,8,-19,-6
1501623662137208,2,1,1,0,-2,2,9,-3
1501623662146183,0,1,-4,-5,-6,-10,22,4
1501623662146183,-2,-2,-4,-3,-4,5,-6,-4
1501623662160225,-2,-1,-2,-2,-9,-40,-23,-2
1501623662160225,-2,-2,-3,2,11,31,12,-2
1501623662169167,0,-2,0,-5,-14,-14,8,-1
1501623662169167,-4,-2,-2,-3,1,1,20,3
1501623662175238,-3,-4,-2,-4,4,0,-24,-4
1501623662175238,1,-1,-2,-1,-4,1,-13,2
1501623662191213,0,2,2,3,3,1,-2,-2
1501623662191213,-4,-3,-1,6,6,-4,8,-1
1501623662197248,-5,-6,-4,-9,-13,-2,14,-3
1501623662197248,0,0,-1,-4,0,-2,-45,-3
1501623662206222,-1,-7,-1,-1,1,-15,12,-2
1501623662206222,1,-1,0,-1,-4,-14,-46,-5
1501623662220264,2,4,1,4,6,13,3,0
1501623662220264,-7,-3,-4,0,-4,-11,-1,-1
1501623662229211,-12,-13,-10,-5,-1,-7,7,-1
1501623662229211,8,10,5,0,-4,-6,-17,9
1501623662235214,4,5,4,4,4,13,18,5
1501623662235214,1,-4,-1,0,0,-8,32,1
1501623662251226,3,3,1,0,7,15,-12,-2
1501623662251226,-6,-7,-6,-5,-2,-3,20,-2
1501623662257288,-10,-18,-13,-6,-19,-2,-5,-4
1501623662257288,6,10,1,-3,-11,-7,-12,4
1501623662266266,13,18,10,11,16,4,51,6
1501623662266266,-5,-6,-2,2,5,-3,-44,-6
1501623662280308,-4,-2,0,-1,-3,-15,-3,-3
1501623662280308,0,-3,2,5,8,10,49,9
1501623662289257,-3,-5,-4,-12,-25,-41,-9,-4
1501623662289257,-2,-9,-7,-3,-1,18,18,0
1501623662295319,9,14,9,5,18,19,-15,1
1501623662295319,-6,-4,-6,-1,-8,-33,-23,-7
1501623662311273,2,4,4,12,12,19,-20,-2
1501623662311273,-3,3,-4,-26,-16,25,35,-2
1501623662317277,-3,-10,0,4,-5,-37,-28,-5
1501623662317277,-3,2,-2,-3,-8,-3,-7,-6
1501623662326284,1,-1,2,-3,3,12,-31,5
1501623662326284,-2,-3,-5,3,7,1,17,-6
1501623662340348,2,2,3,7,4,11,2,0
1501623662340348,-4,-2,-5,-15,-18,9,8,0
1501623662349323,0,2,2,-2,8,1,-4,1
1501623662349323,-4,-2,2,9,3,-9,-22,-10
1501623662355357,3,4,2,-5,7,4,1,13
1501623662355357,0,-1,-1,8,7,-2,9,-4
1501623662371310,-1,-2,-1,0,2,0,14,4
1501623662371310,2,5,3,6,-7,-11,-14,-3
1501623662377377,2,3,-1,-1,9,3,-10,-8
1501623662377377,-3,-10,-3,-14,-10,11,-28,2
1501623662386349,-15,-17,-8,-3,-5,-6,6,-4
1501623662386349,2,1,1,5,0,-11,-5,2
1501623662400331,12,21,6,5,0,-7,-36,0
1501623662400331,5,5,5,3,7,18,31,6
1501623662409362,-6,-2,-6,-5,-14,-28,-24,-15
1501623662409362,-7,-16,-3,-2,0,7,-3,-2
1501623662415400,5,2,-5,-5,-12,-7,14,1
1501623662415400,-6,-4,-3,3,8,-12,-46,-12
1501623662431382,8,9,3,-1,4,12,-9,2
1501623662431382,2,4,3,2,7,14,30,-1
1501623662437418,-9,-12,-4,-6,-11,-7,-4,1
1501623662437418,0,5,3,4,4,0,15,-4
1501623662446394,6,4,4,9,11,12,-22,2
1501623662446394,-4,1,-6,-9,-9,-8,19,-6
1501623662460434,-2,-6,0,1,6,6,11,3
1501623662460434,-6,-8,-3,5,5,-8,-8,1
1501623662469379,6,5,3,6,1,0,-7,-6
1501623662469379,4,9,0,-8,-1,3,4,15
1501623662475433,-1,-1,-4,-12,-25,13,13,-4
1501623662475433,-7,-5,-1,0,4,-10,-13,-2
1501623662491427,-2,0,-1,0,-1,-9,15,6
1501623662491427,3,5,8,10,3,-12,-2,-5
1501623662497460,-10,-12,-10,-9,-6,-7,-10,-14
1501623662497460,6,7,4,2,-11,7,20,11
1501623662506437,9,12,0,-3,6,5,14,-3
1501623662506437,-1,-7,-5,-1,6,-4,24,3
1501623662520475,-9,-4,-2,-7,-6,-6,-45,-11
1501623662520475,-1,-4,-2,-3,-23,8,49,1
1501623662529423,-1,-2,2,2,3,11,-30,-4
1501623662529423,-1,1,-1,-1,2,-20,10,0
1501623662535426,9,6,5,10,14,19,6,5
1501623662535426,-8,-8,-7,-5,9,-2,4,-15
1501623662551438,-3,-1,-3,-5,-14,-15,11,3
1501623662551438,1,-2,-3,-4,-6,26,-12,-4
1501623662557504,-2,-2,-1,1,8,-14,21,0
1501623662557504,3,2,2,-1,-4,1,-8,-4
1501623662572513,-4,-3,-3,2,5,-5,5,3
1501623662572513,0,-1,0,0,-1,17,-15,-4
1501623662580490,-2,1,-3,-6,-12,-16,24,7
1501623662580490,2,0,0,0,11,6,-12,-1
1501623662595473,-6,-5,-2,-2,-5,-15,-14,-7
1501623662595473,0,0,1,1,-3,-7,-8,-5
1501623662596499,1,1,0,6,10,8,11,5
1501623662596499,-3,-2,-4,-6,-2,-14,-37,-3
1501623662611479,-2,-2,-3,-5,-12,16,19,2
1501623662611479,-2,0,-1,4,7,-18,-36,-5
1501623662617521,-4,-1,-1,3,6,8,0,-4
1501623662617521,4,5,2,7,9,11,-8,5
1501623662632527,0,-4,-1,-3,-3,-14,-5,4
1501623662632527,-1,-4,-1,-4,-10,-11,-5,0
1501623662640532,-7,-7,-6,-4,-2,7,33,-3
1501623662640532,1,2,1,3,2,-1,-35,3
1501623662655572,-3,-10,-4,-4,-2,27,18,-4
1501623662655572,-7,-3,-5,-3,-5,-9,3,-5
1501623662656513,-10,-12,-7,-3,-3,-2,11,-5
1501623662656513,10,7,5,1,0,5,44,13
1501623662671528,0,6,-3,-4,-1,-6,-5,-2
1501623662671528,-6,-9,-5,-3,3,16,-3,-6
1501623662677586,1,0,2,-4,-8,-14,6,-2
1501623662677586,-7,-14,-5,2,11,24,29,0
1501623662692599,6,8,5,-9,-9,-16,-28,-1
1501623662692599,-2,-1,-5,-3,-7,16,31,0
1501623662699572,4,6,4,0,-6,-24,-15,0
1501623662699572,-6,-17,-6,-3,-6,-26,-14,-2
1501623662715582,0,-7,1,4,7,2,3,0
1501623662715582,1,4,-1,-1,-2,18,5,-1
1501623662716555,-2,1,1,0,0,-10,-20,-3
1501623662716555,2,4,-1,-5,1,-1,-1,-7
1501623662731584,-2,-6,-2,1,-13,-8,-20,6
1501623662731584,0,4,-1,-2,5,8,-7,3
1501623662737606,3,-1,-2,0,0,14,-21,1
1501623662737606,-2,4,-1,4,11,-13,1,-6
1501623662752609,0,-1,-2,-13,-21,-11,25,-1
1501623662752609,0,-2,2,6,12,1,-10,4
1501623662760620,0,0,-4,-8,-12,-11,25,2
1501623662760620,-2,4,1,4,5,21,22,-3
1501623662775655,0,-4,2,5,8,-38,-9,-2
1501623662775655,-1,1,-1,-6,-10,-24,-19,-5
1501623662776627,-1,-5,0,2,1,16,-11,0
1501623662776627,-3,-3,-1,0,2,19,3,-4
1501623662791609,-6,-2,-3,3,10,56,7,-6
1501623662791609,3,3,3,0,-2,-8,4,5
1501623662797673,2,19,-1,-3,-4,-62,-20,-5
1501623662797673,-1,1,-1,-5,-7,-16,-21,2
1501623662812654,-5,-17,0,3,13,60,4,0
1501623662812654,-2,-3,-1,1,-3,-12,-2,-4
1501623662819688,1,2,-2,0,2,-6,3,-3
1501623662819688,-3,5,-5,-6,-11,-17,-32,-12
1501623662834638,3,-2,2,1,-7,-45,26,11
1501623662834638,3,1,1,1,4,31,21,2
1501623662842674,0,-5,-1,-1,-8,-24,-16,2
1501623662842674,1,3,-1,-2,6,55,3,0
1501623662851650,-4,1,-5,-4,-6,-14,8,-7
1501623662851650,3,1,3,4,4,17,11,2
1501623662857682,-1,-3,0,0,0,34,7,0
1501623662857682,-1,0,1,-1,0,-20,-7,-1
1501623662872694,-4,2,0,-1,-3,-21,-18,-1
1501623662872694,3,5,2,-2,-13,-85,-31,1
1501623662879669,-6,-9,-4,-3,2,4,-18,-9
1501623662879669,6,0,4,0,0,22,15,11
1501623662894681,1,5,-3,-1,3,34,4,-4
1501623662894681,2,10,-1,-2,0,-8,21,-2
1501623662902714,-5,-19,-1,2,5,2,-2,-2
1501623662902714,-1,-5,-3,-2,-5,-27,-14,-6
1501623662911693,1,7,-2,-1,-3,-25,-15,-1
1501623662911693,0,-6,-1,0,0,15,24,4
1501623662917703,-1,3,-1,-1,4,28,-44,-7
1501623662917703,1,-2,-1,0,-5,-5,27,5
1501623662932714,-1,-2,0,0,6,-13,2,-7
1501623662932714,-4,2,1,10,11,15,-2,-4
1501623662939720,1,-3,0,-11,-17,11,12,-11
1501623662939720,-1,-2,-2,1,-10,-9,-16,1
1501623662954752,-3,-2,-4,-1,9,1,-7,-3
1501623662954752,-1,-7,-5,-4,-9,2,16,13
1501623662962729,4,5,2,6,3,-37,26,15
1501623662962729,-3,-3,-1,1,7,51,-13,-9
1501623662971735,-1,-2,-3,5,1,3,-1,-2
1501623662971735,-1,0,-2,-8,0,4,-1,-4
1501623662977747,-1,-2,-4,-6,-18,-10,15,-2
1501623662977747,-6,-8,-4,-6,-2,1,18,-3
1501623662992750,-2,4,3,5,12,-4,-49,-5
1501623662992750,4,2,1,-3,-13,9,-24,0
1501623662999755,1,5,2,1,7,-10,-9,-2
1501623662999755,-9,-9,-8,-7,-11,-47,-18,-7
1501623663014773,1,-2,-1,3,0,3,73,3
1501623663014773,-3,-6,-2,-5,4,13,-12,3
1501623663022772,-3,1,3,5,7,8,-2,0
1501623663022772,5,4,1,-3,-3,-13,-13,6
1501623663037782,1,2,0,5,1,-6,11,0
1501623663037782,-9,-15,-10,-15,-13,-14,3,-7
1501623663038782,11,12,7,5,15,-2,-17,7
1501623663038782,2,2,3,0,-3,38,-8,-3
1501623663052792,-4,-4,-4,-2,-8,-22,-65,7
1501623663052792,-3,-4,-3,-3,7,33,18,-2
1501623663059804,0,-4,0,4,1,-17,4,-1
1501623663059804,-4,-1,0,-2,-11,-51,-21,-10
1501623663074815,-7,-6,-4,-6,-3,25,-17,-9
1501623663074815,-1,0,-1,4,-5,-10,-15,-8
1501623663082843,2,6,-2,1,26,16,30,14
1501623663082843,5,4,0,-7,-17,-5,80,14
1501623663097883,9,9,4,-1,-8,-2,0,-7
1501623663097883,-2,2,0,1,4,-21,-19,8
1501623663098825,-4,-6,-2,-1,-10,22,11,-7
1501623663098825,-6,-6,-2,7,14,-9,-15,-1
1501623663112863,-4,-6,-1,-5,-5,9,-4,0
1501623663112863,-2,2,-2,1,-1,-19,-11,-14
1501623663119899,-2,-6,1,1,-4,10,19,4
1501623663119899,-1,-3,-3,-5,-1,8,-18,-21
1501623663134850,-3,-4,0,0,0,16,12,37
1501623663134850,-2,4,4,4,5,-1,-17,-8
1501623663142915,-7,-8,-8,1,-2,-12,12,7
1501623663142915,0,1,3,2,3,-16,-39,-5
1501623663157925,-4,-8,-6,-16,-15,-5,-37,-10
1501623663157925,8,9,7,9,6,-18,-8,-1
1501623663158873,-3,-3,-2,-4,-2,64,-13,0
1501623663158873,1,2,3,5,3,-21,25,14
1501623663172877,-8,-5,-4,4,2,-32,13,-7
1501623663172877,-4,-1,-2,-3,-1,19,-6,1
1501623663179942,3,3,-1,-4,0,-34,11,-11
1501623663179942,3,4,1,1,-5,-16,54,6
1501623663194955,1,-1,-1,0,5,48,12,-1
1501623663194955,1,0,0,6,4,-34,18,9
1501623663202955,-4,1,1,0,-2,-8,-10,-20
1501623663202955,-3,-6,-4,-1,7,38,-4,5
1501623663217910,7,13,2,0,4,-7,26,1
1501623663217910,-7,-5,-3,-7,-11,-12,-12,-17
1501623663218910,2,3,1,5,2,3,-25,20
1501623663218910,-5,-9,-3,-7,6,0,-8,4
1501623663232920,0,-5,-1,0,-2,8,-26,-10
1501623663232920,3,-1,0,2,2,6,-21,7
1501623663239986,-4,1,-6,-13,-26,-12,2,-15
1501623663239986,0,0,0,3,0,1,-17,4
1501623663255107,-5,-2,-3,-3,-4,-55,1,-6
1501623663255107,-3,-3,-3,-5,-2,36,17,3
1501623663263054,-7,-10,-1,6,2,-4,-28,-28
1501623663263054,7,3,-3,-15,-12,-33,35,16
1501623663278124,3,2,3,5,11,41,13,-1
1501623663278124,2,-1,1,6,4,9,17,3
1501623663279095,0,-6,-4,-1,5,12,3,8
1501623663279095,-4,-5,-2,2,3,0,-26,-14
1501623663292095,3,7,4,5,9,-14,-2,6
1501623663292095,2,-5,-4,-13,-22,-5,33,-1
1501623663300088,-13,-10,-4,-1,4,-1,-2,5
1501623663300088,4,8,6,4,1,12,19,-2
1501623663315118,14,11,-1,-1,-8,-12,-34,-2
1501623663315118,-4,0,-4,-4,-7,11,20,0
1501623663322154,-4,-5,-2,0,5,-28,-11,-4
1501623663322154,-3,-5,-3,-4,1,12,-2,4
1501623663338167,-9,-6,2,1,0,14,-3,-15
1501623663338167,2,-3,-4,-11,-21,-20,-10,3
1501623663339137,6,10,1,0,-1,10,8,21
1501623663339137,-11,-7,-1,3,2,1,-59,-14
1501623663354127,9,3,1,2,4,14,30,3
1501623663354127,-3,0,-3,-2,4,15,33,-12
1501623663360182,-2,-4,-3,-6,-1,3,-9,-2
1501623663360182,-2,0,-1,6,-6,1,-11,-2
1501623663375305,-4,-5,-3,-7,2,-1,35,3
1501623663375305,-8,-8,-2,-1,1,0,26,1
1501623663382277,-5,-10,-5,-3,-7,0,-26,-5
1501623663382277,11,17,6,4,3,-3,-18,-4
1501623663398321,-8,-5,-5,-4,-5,3,20,-3
1501623663398321,0,1,0,8,6,-2,19,8
1501623663399267,6,2,-1,-2,6,8,11,2
1501623663399267,-3,-5,-4,-7,-17,-13,-1,-7
1501623663414303,-8,-7,-5,0,11,-9,-1,-9
1501623663414303,1,1,-1,-7,-25,-13,-63,1
1501623663420279,1,3,3,4,6,6,18,1
1501623663420279,-4,0,-6,-6,-10,-3,-5,-6
1501623663435294,0,-2,-1,-2,4,18,-4,2
1501623663435294,-5,-3,-2,4,10,-1,-5,-4
1501623663442352,0,3,4,-6,-7,-9,-56,-6
1501623663442352,0,-4,-3,2,6,6,16,4
1501623663458364,-6,-4,-8,-5,-14,-22,-27,-8
1501623663458364,8,5,5,2,14,1,40,8
1501623663459333,-2,-2,0,0,-11,11,-13,-6
1501623663459333,1,3,0,-4,4,-2,1,7
1501623663474343,-1,-4,-1,-7,-14,-7,3,8
1501623663474343,0,-1,2,4,13,-6,-23,-2
1501623663480380,0,-3,0,1,8,-17,5,-1
1501623663480380,2,2,2,4,-3,-17,-19,-1
1501623663495391,0,-2,0,-1,-1,4,11,1
1501623663495391,5,7,2,2,-1,12,-16,2
1501623663502395,0,1,-2,-4,-6,2,31,3
1501623663502395,-3,-3,-1,2,2,0,-4,-1
1501623663518353,3,1,1,0,-3,4,22,-7
1501623663518353,-5,-7,-2,2,9,24,22,2
1501623663519353,2,1,-2,-6,-12,1,52,6
1501623663519353,-1,-3,-4,-2,3,4,-6,-6
1501623663534385,0,1,-1,-1,-8,-38,-2,-4
1501623663534385,-3,-7,-2,5,2,-10,-16,-9
1501623663540420,4,4,-1,-16,-8,16,-21,3
1501623663540420,-4,0,-1,-1,-2,13,1,-4
1501623663555433,5,6,2,1,-2,-7,8,3
1501623663555433,-1,0,0,2,4,-13,-32,5
1501623663562438,-2,0,-3,2,4,-4,9,-1
1501623663562438,-2,-3,1,3,0,0,11,-1
1501623663578450,-10,-11,-6,-3,0,-5,-11,-10
1501623663578450,2,-1,-2,-7,-9,-11,-18,3
1501623663579389,-1,-3,0,0,-12,-15,-21,-5
1501623663579389,2,2,2,1,9,11,-11,2
1501623663594428,-1,0,-1,-4,-13,-11,28,-2
1501623663594428,0,-1,0,0,3,-9,-28,-7
1501623663600407,0,1,-1,4,4,6,5,2
1501623663600407,0,1,-1,-2,0,-4,-14,-2
1501623663615446,-8,-5,-2,-4,0,2,-27,-6
1501623663615446,3,6,0,-4,-8,-17,-5,1
1501623663622420,2,3,1,2,9,5,22,-1
1501623663622420,-2,-8,0,2,2,7,-15,0
1501623663638492,3,1,2,-1,-1,3,-9,5
1501623663638492,-3,-5,-5,-4,3,42,25,-4
1501623663639460,0,0,1,4,-5,-30,-45,-1
1501623663639460,-2,-2,-2,-6,-6,-12,15,2
1501623663654450,-3,-5,-1,2,6,9,-26,-4
1501623663654450,-6,-5,-7,-5,-4,-7,-23,-6
1501623663660483,0,0,1,4,0,4,27,2
1501623663660483,-2,2,3,7,15,3,-5,1
1501623663675503,-5,-7,-5,-9,-15,0,-7,-1
1501623663675503,6,7,1,-4,-5,-12,1,1
1501623663682492,-3,-1,-4,-1,-4,4,6,0
1501623663682492,-1,-3,-3,1,-2,-10,10,-2
1501623663698533,-2,1,-2,5,24,7,-1,1
1501623663698533,-1,-4,-1,-8,-18,13,9,0
1501623663699474,-4,-7,-3,-3,6,1,-2,-5
1501623663699474,-1,0,-2,-1,-5,0,15,-1
1501623663714488,3,2,1,1,0,-41,-81,0
1501623663714488,-1,2,2,2,5,15,9,-2
1501623663720519,-4,-3,0,2,5,14,8,-1
1501623663720519,-4,-3,0,-1,-4,-9,-17,-2
1501623663734613,5,5,0,-9,-16,6,15,5
1501623663734613,-6,-8,-2,2,15,-10,-7,-5
1501623663742680,1,3,-2,-5,-9,-7,-4,0
1501623663742680,0,-4,-2,-3,-2,2,17,-1
1501623663757662,0,1,-1,3,-1,16,39,9
1501623663757662,-5,-3,1,2,-1,-18,-20,-4
1501623663764692,6,2,1,-2,3,15,10,0
1501623663764692,2,5,2,-1,-3,-3,0,-1
1501623663773699,-4,-5,-5,0,-2,3,19,-5
1501623663773699,-12,-17,-7,-4,-1,25,40,1
1501623663779687,6,12,4,5,0,-17,-51,-4
1501623663779687,-1,-1,-6,-11,-5,-4,-15,-2
1501623663794686,2,4,6,8,5,8,14,5
1501623663794686,-2,-4,-4,-4,-4,-11,5,-4
1501623663802720,-7,-7,-4,0,0,1,14,-1
1501623663802720,-1,-2,2,2,4,10,-29,1
1501623663817699,4,4,1,0,4,12,-25,-7
1501623663817699,1,2,0,-2,-10,-19,9,6
1501623663824737,-3,-5,-1,0,5,2,10,1
1501623663824737,2,3,-4,-4,-11,-10,6,1
1501623663842717,0,-5,-3,-2,1,-2,-22,-5
1501623663842717,5,6,1,1,3,-4,1,1
1501623663842717,0,4,1,4,1,-4,10,-2
1501623663842717,0,-3,-4,-2,3,-9,-28,-9
1501623663854725,1,-4,0,-4,-7,0,-11,3
1501623663854725,1,0,-3,2,-1,0,4,-5
1501623663862763,-1,-3,0,-1,1,7,7,3
1501623663862763,3,9,1,-3,-12,-12,29,-1
1501623663877773,-4,0,0,1,4,1,25,3
1501623663877773,3,5,3,4,10,-1,-19,0
1501623663884722,-5,-7,-5,-3,-5,-5,-2,-8
1501623663884722,-4,-8,-4,0,0,11,-25,0
1501623663893756,-1,3,2,2,4,-3,14,3
1501623663893756,0,1,-2,-6,-10,-13,28,4
1501623663899734,4,-2,1,0,1,3,-3,1
1501623663899734,-4,-4,-4,-5,1,6,2,-5
1501623663914797,-2,0,1,1,-6,-12,-4,-5
1501623663914797,0,-1,0,3,9,2,-36,6
1501623663922805,3,-5,-2,-6,0,-16,40,4
1501623663922805,0,-4,-2,4,-2,22,3,-2
1501623663937815,3,9,1,2,2,-2,7,-2
1501623663937815,-4,-1,-1,3,-6,-36,-39,-6
1501623663944820,1,2,1,-1,-3,19,-26,1
1501623663944820,0,0,2,4,10,2,20,2
1501623663953797,-6,-8,-4,-5,-26,-3,-16,-1
1501623663953797,-1,-3,-4,-9,3,-4,4,-6
1501623663959834,-2,1,-1,1,-3,6,3,1
1501623663959834,-9,-4,-2,0,2,-2,-32,-7
1501623663974839,4,-3,-1,1,5,23,27,2
1501623663974839,5,9,2,3,-4,-3,-22,2
1501623663982812,-1,0,-2,-8,1,5,-5,0
1501623663982812,-3,-3,-2,-2,-5,0,6,-3
1501623663997857,-6,-8,-3,0,8,-4,14,1
1501623663997857,-2,-2,0,1,-7,22,16,-2
1501623664004864,-1,-4,-2,-2,4,13,1,-3
1501623664004864,-3,-3,-5,1,-5,-23,4,-2
1501623664020873,-5,-12,-4,-4,1,-3,-16,-3
1501623664020873,12,16,5,4,1,23,53,10
1501623664021844,-4,2,0,2,2,-5,19,-3
1501623664021844,-1,-2,-3,-2,-2,-11,-7,-2
1501623664034828,-3,-4,-1,1,2,4,61,3
1501623664034828,-7,-7,-3,-6,-8,-12,-53,-4
1501623664042861,-3,-1,-2,-2,4,0,-14,1
1501623664042861,4,-2,0,-1,-12,6,2,2
1501623664057903,4,4,-1,2,7,-6,26,-3
1501623664057903,-5,-7,-4,-2,-13,-18,-5,-7
1501623664064905,-1,-2,-2,-2,-3,10,6,1
1501623664064905,4,11,5,3,13,4,25,9
1501623664080915,4,5,-3,-2,-4,-5,-28,-2
1501623664080915,1,2,1,-2,1,-10,-3,-2
1501623664081887,-13,-14,-8,0,-8,-2,44,-10
1501623664081887,0,0,2,0,7,16,-37,-8
1501623664094927,2,1,2,0,-6,5,14,-2
1501623664094927,0,0,0,1,5,17,11,1
1501623664102933,2,6,1,2,-4,-25,-16,-1
1501623664102933,-5,-2,-4,4,3,-15,6,-2
1501623664117889,-3,-4,-2,-12,-12,-2,-6,3
1501623664117889,-1,-1,1,-1,2,2,-3,-9
1501623664124918,-2,1,-2,-1,-2,-5,0,4
1501623664124918,4,4,1,0,-1,1,54,3
1501623664140960,0,0,0,3,1,-4,-50,-3
1501623664140960,-2,0,-1,-2,-5,-1,18,6
1501623664141929,0,-6,-2,0,10,-19,-27,-5
1501623664141929,-3,-3,0,-4,0,14,-11,4
1501623664154969,-8,-9,-6,-6,-7,6,-4,-4
1501623664154969,3,-1,-2,0,1,3,-9,-2
1501623664162975,1,4,1,1,-10,-12,6,1
1501623664162975,-5,-5,-2,0,11,3,1,4
1501623664177986,6,2,2,-2,-5,-3,-18,-1
1501623664177986,-3,-1,0,3,6,-2,8,-2
1501623664184959,-1,-3,-2,-3,-3,12,-3,-3
1501623664184959,5,5,2,3,5,-27,-33,0
1501623664200970,-2,3,-1,0,2,11,4,1
1501623664200970,-8,-9,-6,-7,5,2,-7,-4
1501623664201943,4,4,3,-4,-12,-12,-32,-3
1501623664201943,-1,-4,0,-4,-9,13,20,5
1501623664214980,-1,0,1,6,9,-17,-20,-4
1501623664214980,-1,-1,-2,-2,-7,-16,-4,2
1501623664222958,-1,-3,-1,-2,8,44,-18,-4
1501623664222958,-2,-1,-2,-4,-6,-11,1,-8
1501623664237973,-7,-7,-1,4,6,-10,5,1
1501623664237973,6,3,-2,-5,-16,6,3,0
1501623664244973,-8,-5,-5,-8,-19,-38,-17,-6
1501623664244973,-5,-2,3,1,-5,1,-60,-7
1501623664260985,4,-2,-2,4,15,12,9,6
1501623664260985,-7,-7,-3,-1,-7,-2,-7,-3
1501623664261985,2,1,-1,0,-3,-9,12,7
1501623664261985,3,2,0,-2,-6,10,30,-4
1501623664275023,-5,-1,-2,0,6,-7,-3,-2
1501623664275023,9,6,5,-3,-6,6,-9,2
1501623664282999,1,0,-2,-7,-13,1,8,-3
1501623664282999,-5,-3,-3,-3,1,-11,4,-1
1501623664297038,2,2,2,0,2,-4,1,0
1501623664297038,-3,-2,1,6,6,-1,-18,-5
1501623664305044,-1,7,1,-1,17,0,12,-1
1501623664305044,3,-4,-3,-9,-18,3,-32,1
1501623664321026,1,1,-1,1,-5,2,-30,0
1501623664321026,-3,-3,-2,-1,-1,3,-6,-2
1501623664321026,-4,-10,-3,6,12,16,23,3
1501623664321026,1,3,2,3,-4,-9,15,3
1501623664335037,2,4,0,-7,-7,20,-2,-2
1501623664335037,-1,-1,0,-3,1,-12,5,3
1501623664343071,4,5,2,5,0,-8,2,0
1501623664343071,-3,-2,-1,3,8,-7,-3,-2
1501623664357081,-4,-2,0,-2,-2,-7,-27,-7
1501623664357081,-3,-4,-4,1,5,1,18,-2
1501623664365066,0,-1,2,3,-4,-9,-39,3
1501623664365066,0,1,-1,-2,5,-3,8,5
1501623664381076,-8,-7,-3,-3,-9,5,-12,-10
1501623664381076,0,1,-1,-1,2,4,23,5
1501623664381076,-3,-8,-5,-1,12,-6,-10,-7
1501623664381076,8,8,3,-2,-18,-1,-35,-1
1501623664395108,1,0,-2,-2,-1,-6,5,1
1501623664395108,-4,-6,-4,-2,8,15,4,-3
1501623664402112,0,2,4,4,-5,-7,-19,-3
1501623664402112,-3,-6,-2,-2,1,8,14,1
1501623664417122,6,2,2,0,17,20,32,9
1501623664417122,-3,0,-2,-4,-18,-7,-27,-7
1501623664425129,3,4,-2,1,4,-22,76,8
1501623664425129,-6,-10,-4,-1,-4,30,0,-6
1501623664441139,3,11,4,4,-2,-32,-43,-4
1501623664441139,-7,-8,-5,2,15,13,2,-5
1501623664441139,-6,-7,-6,-7,-17,-8,-37,-6
1501623664441139,4,3,0,2,13,-1,11,1
1501623664455151,-4,-2,-3,-9,-19,-7,26,0
1501623664455151,1,4,0,-1,-6,-25,-27,1
1501623664462155,-3,-3,3,2,5,21,-5,-1
1501623664462155,-5,-6,-7,0,5,-9,6,1
1501623664477167,0,0,-2,-1,1,-6,-50,-5
1501623664477167,1,1,-3,-4,-8,4,14,1
1501623664485171,1,5,0,2,8,12,-13,-2
1501623664485171,1,5,1,-5,-8,-6,28,-1
1501623664501157,-3,-1,2,5,10,-12,9,0
1501623664501157,2,-1,0,-1,-8,29,-10,5
1501623664501157,-2,-6,-3,-7,-3,-10,-28,-1
1501623664501157,10,6,3,-3,-8,14,12,0
