timestamp,emg1,emg2,emg3,emg4,emg5,emg6,emg7,emg8
1501625435248358,0,8,-10,-1,-13,-51,-15,-6
1501625435248358,-2,22,-10,-1,-10,47,12,7
1501625435248358,-5,-8,3,-1,7,-57,-2,0
1501625435248358,2,-16,9,-1,7,34,-2,-5
1501625435249358,0,3,-5,-2,4,20,-2,-5
1501625435249358,-1,13,-8,2,-8,-39,-2,2
1501625435252388,-3,-3,2,-3,-13,5,0,2
1501625435252388,1,-18,5,-1,20,18,2,-1
1501625435260374,2,0,-4,1,-2,-1,3,-3
1501625435260374,-3,12,-7,0,0,-26,-11,-3
1501625435268401,0,1,2,0,3,35,17,7
1501625435268401,1,-15,6,0,9,-24,-13,-8
1501625435274405,1,2,-2,-1,-5,10,-3,-3
1501625435274405,-4,14,-8,-2,-9,1,5,8
1501625435289444,-1,-1,3,0,-2,-47,-6,-5
1501625435289444,-1,-15,5,-3,0,75,15,-1
1501625435299399,1,3,-5,-1,-6,-10,2,2
1501625435299399,-4,8,-6,0,0,7,-14,-6
1501625435304504,-3,-5,-1,-4,-1,-5,3,3
1501625435304504,1,-10,3,-2,-17,-70,-4,-6
1501625435320583,-4,2,-3,4,26,92,-8,-9
1501625435320583,-5,1,-8,-8,-10,20,10,6
1501625435328555,0,-2,1,-4,-4,-36,-13,-6
1501625435328555,-1,-9,-3,-3,10,-20,-1,-4
1501625435367587,0,14,-11,2,-11,-1,0,-3
1501625435367587,-7,21,-10,-3,-14,-25,-2,3
1501625435368556,-1,-11,4,1,20,43,5,0
1501625435368556,3,-21,10,-2,-4,-34,-7,0
1501625435369562,1,6,-3,5,3,-2,-5,-1
1501625435369562,-3,16,-11,-4,-12,-16,-4,0
1501625435371618,-1,-3,6,2,10,-3,0,3
1501625435371618,2,-16,4,1,1,-26,-4,-7
1501625435380577,-1,3,-3,-2,-4,-16,-7,-5
1501625435380577,-1,12,-6,1,-3,37,12,9
1501625435386629,-1,-4,0,-9,-12,-5,-3,1
1501625435386629,1,-19,4,2,10,-23,-2,-9
1501625435403609,-1,3,-6,-3,-11,-28,-8,-4
1501625435403609,-4,12,-4,3,16,64,0,-2
1501625435409589,1,-3,4,-3,-9,3,9,7
1501625435409589,0,-13,1,-2,-4,-19,3,-4
1501625435418590,-3,5,-9,-3,1,5,-1,-2
1501625435418590,0,9,-1,1,-4,51,7,4
1501625435431661,-1,-7,0,-3,4,-7,-1,-2
1501625435431661,-1,-10,-1,-6,-1,-33,-10,-5
1501625435440638,0,4,-2,1,-9,-30,3,-1
1501625435440638,-3,4,-1,2,16,34,3,1
1501625435446638,0,-5,2,-2,-1,-8,-8,-4
1501625435446638,0,-5,-1,-2,5,7,-10,-8
1501625435463623,1,3,0,0,0,-1,0,1
1501625435463623,-3,4,-4,-4,-19,-56,-9,-4
1501625435469654,-5,-1,-1,1,-5,-13,-7,-4
1501625435469654,0,-6,-1,-7,-22,-12,3,-1
1501625435478633,1,5,3,8,16,13,-5,-2
1501625435478633,-2,0,-5,-5,-11,33,3,1
1501625435491647,-2,-1,-1,-2,-4,-23,-12,-6
1501625435491647,4,-2,3,4,8,2,7,6
1501625435500648,0,2,-3,0,-1,26,5,0
1501625435500648,-1,4,-1,-2,-8,-24,-2,-1
1501625435506712,1,-5,1,0,1,-16,2,-2
1501625435506712,-1,-1,-3,-3,-11,-23,-11,-3
1501625435523672,-1,-1,-1,-3,10,80,8,-1
1501625435523672,-2,0,0,2,10,-8,-3,-1
1501625435529698,0,-3,0,2,8,47,9,3
1501625435529698,1,-2,1,0,-1,-43,-10,-3
1501625435538682,-1,-1,-3,-3,-15,-19,-2,-2
1501625435538682,0,1,0,0,-2,8,1,4
1501625435551742,0,-2,1,2,-1,-6,0,-3
1501625435551742,-1,-2,-2,-3,11,42,6,-2
1501625435560802,-4,-2,-5,-5,-1,-8,-5,-5
1501625435560802,4,2,3,6,-7,-43,0,3
1501625435566867,0,-5,-3,-3,-11,-20,0,3
1501625435566867,-2,-3,-2,3,19,37,4,-4
1501625435582877,-3,-2,-4,-4,-5,27,2,1
1501625435582877,-3,0,1,-2,7,-3,-4,-1
1501625435589853,-1,-3,0,1,2,-13,3,0
1501625435589853,0,2,0,4,-5,11,-2,-3
1501625435597888,0,-2,-2,-2,14,33,5,4
1501625435597888,2,-1,1,1,12,17,-2,5
1501625435611839,-1,-4,-2,-1,2,12,8,-1
1501625435611839,-1,0,-1,0,-1,6,0,0
1501625435620846,1,2,1,6,1,-23,1,2
1501625435620846,-1,0,-3,-7,-8,-4,-5,-5
1501625435626903,-3,-3,-3,-2,13,14,-7,-4
1501625435626903,0,4,-3,-5,-16,-31,-1,2
1501625435642947,-1,-3,1,1,-3,-25,0,1
1501625435642947,-1,-2,0,-2,3,-9,7,1
1501625435648947,-1,-1,-1,2,7,3,6,-2
1501625435648947,2,-2,1,0,5,17,0,-1
1501625435657933,-2,3,-3,-7,-29,-13,-2,-1
1501625435657933,-3,-3,-1,-3,0,-23,-5,-5
1501625435671936,0,0,-2,0,5,16,-4,-2
1501625435671936,-1,-3,-4,0,4,21,-2,-3
1501625435680941,-2,-2,-1,-1,-7,-16,-2,-3
1501625435680941,-2,-2,0,-3,-5,2,-4,-4
1501625435687003,-1,0,2,-1,-19,-43,-7,-2
1501625435687003,-1,-2,0,2,13,38,0,0
1501625435702971,-1,2,-2,1,3,-12,-2,0
1501625435702971,-2,-3,1,-2,-5,-30,-1,-1
1501625435709017,0,-2,-1,-3,-14,21,-4,-5
1501625435709017,0,2,-1,2,4,20,16,10
1501625435717968,1,3,-2,1,0,-14,-1,2
1501625435717968,-1,-5,1,-1,2,35,4,0
1501625435731978,-1,0,-2,-3,-2,-4,4,-2
1501625435731978,-3,-2,-4,-1,-3,-34,3,-1
1501625435741015,-2,0,-4,-3,3,13,1,0
1501625435741015,0,-1,0,3,1,-24,-3,2
1501625435746987,-1,-3,-3,-4,-13,-17,-11,-3
1501625435746987,-1,1,-4,-2,-7,38,3,-3
1501625435763029,0,-2,1,3,9,-21,1,0
1501625435763029,-2,0,-1,-1,-9,11,1,-3
1501625435769062,-1,-3,4,4,12,-1,-3,2
1501625435769062,0,4,-1,-1,-4,-29,2,2
1501625435778009,-3,1,0,0,3,3,-6,-5
1501625435778009,1,-2,0,-5,-13,-29,-5,-1
1501625435792077,3,-2,1,1,7,29,10,2
1501625435792077,2,-1,-1,0,-3,-25,-6,-4
1501625435801056,0,3,-1,2,21,52,7,2
1501625435801056,-1,-1,0,-5,-3,0,5,1
1501625435807205,0,-1,0,-5,-16,-24,3,3
1501625435807205,-4,-1,-1,4,15,9,-13,-10
1501625435823186,-1,-1,-2,-2,-2,19,5,1
1501625435823186,-1,-2,0,2,1,-17,-2,0
1501625435829272,-1,-3,-2,-2,-7,-17,0,-1
1501625435829272,-1,0,-2,-5,-2,21,-6,-4
1501625435838309,-6,-4,-5,-5,-12,-26,-3,-5
1501625435838309,-5,-5,-1,-2,13,18,-10,-6
1501625435852289,-1,-2,-2,0,-6,-13,-8,0
1501625435852289,1,2,1,4,8,20,9,5
1501625435861295,-1,-1,-1,-1,-7,-7,-3,-1
1501625435861295,3,0,1,2,1,25,1,4
1501625435867300,-3,-1,0,1,4,-40,-3,-3
1501625435867300,-3,-1,-6,-4,-9,5,5,0
1501625435883348,3,4,0,0,6,21,2,3
1501625435883348,-2,-4,2,-1,-16,-33,-1,-1
1501625435889377,-1,-2,-2,1,11,31,5,-1
1501625435889377,0,3,0,-1,-20,-27,-8,0
1501625435898347,-2,-3,-1,-2,0,-3,3,0
1501625435898347,-1,-2,-1,-1,-3,-14,-5,-3
1501625435911361,-1,0,-2,2,6,8,1,-2
1501625435911361,1,2,-4,-4,-18,-35,-1,1
1501625435920347,-1,-1,1,2,15,34,-1,-1
1501625435920347,-2,-3,1,-2,1,-4,6,1
1501625435926369,-3,-3,-3,-6,-7,18,-5,-6
1501625435926369,1,0,-2,-5,-10,20,0,2
1501625435943358,-1,-1,-2,-2,-7,-48,-10,0
1501625435943358,0,-6,1,0,5,13,0,-3
1501625435949416,0,-1,-3,-2,0,-6,-3,0
1501625435949416,-1,3,-2,1,2,-19,0,-2
1501625435958394,1,3,2,1,-1,6,-2,0
1501625435958394,0,-2,-1,-2,5,23,6,-1
1501625435971434,-1,1,0,2,0,-28,-7,-1
1501625435971434,-2,2,-1,0,-5,-19,4,4
1501625435980385,0,3,3,1,7,56,-1,0
1501625435980385,-2,-4,0,1,-3,-13,-1,-1
1501625435986444,4,-3,3,2,3,-22,-4,-1
1501625435986444,-2,0,-5,-3,-3,-14,0,-2
1501625436003396,-4,0,-3,-1,-11,-22,-1,-3
1501625436003396,1,-3,1,-1,6,37,0,2
1501625436009405,0,-1,0,3,0,7,-4,-3
1501625436009405,0,3,-3,0,-4,-12,-7,-2
1501625436025431,-2,-3,-4,-5,-5,32,9,2
1501625436025431,0,-2,1,3,9,19,4,-2
1501625436032445,0,-1,-1,-1,0,17,4,1
1501625436032445,-2,1,-1,4,6,-17,-4,-3
1501625436040455,-1,0,0,-4,-21,-48,-9,-2
1501625436040455,0,-1,-1,1,7,-15,0,1
1501625436046426,-1,-3,-2,-5,10,-3,-8,-3
1501625436046426,-1,0,-2,3,-2,29,5,1
1501625436063439,-1,0,2,3,0,-9,-6,-3
1501625436063439,-3,-2,-2,0,-10,-51,4,1
1501625436069502,0,2,0,-2,2,28,10,-1
1501625436069502,-1,0,-2,-1,12,36,-2,-3
1501625436084482,-2,2,-1,2,5,13,8,3
1501625436084482,0,-8,0,-7,-16,-9,-9,-5
1501625436091486,-3,-2,-4,-6,-6,-23,3,0
1501625436091486,-4,3,-2,-2,-10,-27,0,-2
1501625436100492,1,-1,0,1,15,50,5,1
1501625436100492,0,-1,3,2,17,13,-2,-2
1501625436106496,-2,0,1,3,-13,-27,-4,-1
1501625436106496,1,-2,-3,-6,-11,-17,-7,0
1501625436123511,1,0,-2,-2,0,-13,4,3
1501625436123511,0,-3,0,-1,-4,18,-4,-5
1501625436129485,0,-2,0,0,-1,-2,-3,-2
1501625436129485,-1,4,-2,2,2,15,1,1
1501625436145496,-3,1,-4,-3,-8,-14,-3,-3
1501625436145496,-2,-3,0,-2,2,-14,1,0
1501625436151500,-1,-2,0,-1,-3,12,-2,-3
1501625436151500,-2,3,-2,-2,-1,-21,-6,-4
1501625436160506,0,-2,-1,-4,-5,13,-3,-2
1501625436160506,0,-1,1,5,5,-14,0,3
1501625436166571,-2,-3,-2,-7,-8,-3,-1,-2
1501625436166571,-1,5,-1,1,3,16,3,0
1501625436183552,-1,-2,-1,-6,-12,-58,-9,-4
1501625436183552,0,-4,1,1,-8,1,-2,-1
1501625436189587,0,1,0,0,-2,8,0,-1
1501625436189587,-2,0,-4,0,-2,37,2,0
1501625436205543,-3,-3,0,0,12,2,2,-4
1501625436205543,-1,-4,-2,-3,-2,19,-3,-3
1501625436211556,-1,-3,-2,-3,-3,6,-2,-2
1501625436211556,1,4,-1,-2,-7,-6,-1,-1
1501625436220562,0,3,-1,2,0,-3,0,1
1501625436220562,-2,-4,-1,-7,-19,-36,-2,-1
1501625436226560,-1,-2,1,8,25,9,-7,-3
1501625436226560,0,1,0,2,13,54,1,-2
1501625436243565,0,-4,-2,-3,-5,0,2,3
1501625436243565,-2,-3,-3,-3,-6,-10,-5,-2
1501625436249629,-1,1,0,2,-2,47,12,2
1501625436249629,-2,3,-2,-2,2,-34,-2,-4
1501625436265588,-2,-2,-1,1,0,2,3,3
1501625436265588,1,-3,0,-1,11,-4,-2,-1
1501625436271647,2,0,2,4,-4,-44,-3,-1
1501625436271647,-2,-1,-3,0,8,33,5,0
1501625436280621,-3,2,-3,-4,-22,-76,-9,-2
1501625436280621,0,-5,4,2,11,28,-2,-2
1501625436294631,0,-3,0,-1,13,41,-4,-3
1501625436294631,-1,-3,-3,-2,-8,-23,1,1
1501625436303638,-1,3,1,1,-5,-30,-5,1
1501625436303638,0,-3,-1,0,0,6,10,3
1501625436309612,0,-1,-2,0,-2,-16,0,1
1501625436309612,0,3,2,-1,-11,-4,-5,-1
1501625436325629,0,1,-1,-3,3,-7,-3,1
1501625436325629,-1,-2,1,2,2,-8,-1,-1
1501625436331656,0,0,1,2,12,11,0,2
1501625436331656,0,2,0,1,-9,-35,-1,-1
1501625436340639,-2,-2,-2,-6,-4,71,8,-3
1501625436340639,0,-2,0,3,14,44,2,0
1501625436354672,-1,-7,-2,-6,-16,-52,-5,-2
1501625436354672,-2,2,-3,-3,-5,6,-2,1
1501625436363651,-1,-1,-1,0,1,4,0,-5
1501625436363651,0,-3,-2,-5,-8,-23,-6,-1
1501625436376660,-1,-2,-3,-3,2,4,1,-2
1501625436376660,-1,1,-1,-1,-1,15,-2,1
1501625436385695,1,1,-1,4,4,18,11,5
1501625436385695,-1,-2,0,-5,-9,-5,-10,-7
1501625436391726,-3,-1,0,2,7,-8,-7,-2
1501625436391726,1,4,0,0,1,8,1,-1
1501625436400706,-2,-2,-2,1,4,-5,-2,-3
1501625436400706,-1,1,-1,-5,-12,0,-1,-1
1501625436414741,3,0,1,0,6,3,10,5
1501625436414741,-1,2,-2,-1,-8,32,5,-2
1501625436423693,-2,0,0,1,4,1,-4,-1
1501625436423693,-1,-4,-2,-4,4,6,-2,-2
1501625436436730,-2,-3,-1,-2,-13,-30,-4,-3
1501625436436730,-1,1,-3,0,12,27,-2,-1
1501625436445737,0,-1,-1,-2,-9,-27,-4,0
1501625436445737,-1,-6,-3,-2,3,1,-3,-6
1501625436451741,-2,1,-1,-1,-11,1,2,-1
1501625436451741,-1,-2,-1,-2,8,-4,-8,-1
1501625436460747,-3,-2,-3,0,0,40,-3,-1
1501625436460747,-1,-2,2,5,6,-35,4,1
1501625436474754,2,-2,-1,-4,-6,-2,-13,-4
1501625436474754,-1,2,-2,-1,-2,7,2,-1
1501625436483764,-1,2,-2,0,-12,-28,1,2
1501625436483764,0,-5,-2,-3,11,25,-2,-2
1501625436496744,-1,-3,0,3,-5,-15,1,-2
1501625436496744,-2,1,-2,-3,-6,10,7,4
1501625436505781,0,0,-3,-5,-1,18,-3,-3
1501625436505781,-3,-1,-1,2,5,-30,2,2
1501625436511756,-2,-2,0,-3,-1,-2,-2,-3
1501625436511756,-1,4,-1,0,-8,-50,-6,0
1501625436520811,1,0,-3,1,1,-21,2,2
1501625436520811,-1,0,3,-2,17,64,2,0
1501625436534854,0,-5,-2,-4,1,11,2,-1
1501625436534854,-2,4,-3,1,-4,-38,-5,-1
1501625436542826,0,-1,1,0,8,17,3,0
1501625436542826,-3,-4,-3,-11,-28,-33,-14,-4
1501625436556898,-3,-3,0,-1,7,29,16,1
1501625436556898,-3,-1,-2,-1,-4,1,-2,-5
1501625436565873,0,0,0,-1,2,-4,-5,1
1501625436565873,0,-3,-3,4,4,-30,-11,-3
1501625436571906,-1,1,0,2,-2,9,-3,-4
1501625436571906,-1,0,-4,-5,-4,36,0,-3
1501625436580884,-1,-3,0,1,1,8,0,0
1501625436580884,2,-3,1,0,-11,-26,2,-1
1501625436593889,0,-1,-1,3,7,-6,-5,-1
1501625436593889,-5,2,-4,-2,2,-9,1,-1
1501625436602928,0,-2,-1,-3,-11,5,-5,-1
1501625436602928,1,-2,0,-2,3,-1,3,-1
1501625436616906,2,0,3,1,-17,-67,-6,1
1501625436616906,-2,0,-5,1,22,89,9,0
1501625436625889,-4,1,-2,-4,-22,-32,-7,-5
1501625436625889,-1,-1,-1,-1,-7,2,6,0
1501625436631893,-1,-2,-1,1,11,25,1,-2
1501625436631893,1,1,0,3,-2,-48,-8,0
1501625436640899,-1,0,0,0,3,11,0,1
1501625436640899,-2,-4,-1,2,0,29,-2,-5
1501625436653907,0,-3,-1,-1,-1,-13,-6,-1
1501625436653907,1,2,-2,-3,-10,-46,-5,-1
1501625436662909,-2,1,-1,5,10,27,8,0
1501625436662909,0,-1,1,2,5,6,-2,-2
1501625436676923,-1,-3,-3,-4,-1,-5,-6,-5
1501625436676923,-1,2,3,1,-1,-20,-3,1
1501625436685931,-2,2,-4,-6,1,-2,-5,-3
1501625436685931,0,-3,3,2,2,-2,-3,0
1501625436700943,0,-1,0,1,1,3,-3,-2
1501625436700943,0,-1,-2,3,5,10,5,4
1501625436701945,2,-1,2,-4,-3,5,5,1
1501625436701945,2,-3,0,2,0,-29,4,1
1501625436713953,-1,-1,1,1,11,31,1,-2
1501625436713953,1,2,-2,0,-11,-14,-5,1
1501625436722952,0,2,-1,3,17,15,5,2
1501625436722952,1,-4,-1,0,-16,-29,-4,-1
1501625436736970,-3,-3,-3,-4,1,16,-1,-4
1501625436736970,3,2,1,4,0,9,3,3
1501625436745975,-4,0,-1,-2,-5,-16,2,-1
1501625436745975,-2,-1,-2,-5,-1,-16,-3,-2
1501625436751978,-1,1,0,-3,-16,-35,2,1
1501625436751978,-2,-3,0,-1,14,39,-3,-2
1501625436760981,-1,0,-4,-2,-5,-5,-6,-3
1501625436760981,-2,-1,0,0,-5,-5,4,-2
1501625436773996,2,2,0,-1,-7,-15,1,2
1501625436773996,-4,-1,-3,-3,-3,-5,0,-3
1501625436782995,-1,-1,-2,4,0,-9,-1,3
1501625436782995,0,-4,-1,-1,5,20,-3,-3
1501625436797004,-1,-3,-2,-2,-3,-8,-5,-3
1501625436797004,-4,0,-5,-6,-8,4,8,2
1501625436806011,0,1,1,-2,4,6,-2,-2
1501625436806011,0,-5,-1,2,4,8,1,0
1501625436821022,-2,-4,-5,-3,-4,-24,-6,-5
1501625436821022,-1,2,1,0,-3,-17,-1,-2
1501625436822023,-4,2,-3,-1,-7,-16,-8,-2
1501625436822023,-1,-4,0,0,12,36,7,2
1501625436834031,-1,-3,-3,-4,-12,-25,-8,-5
1501625436834031,1,2,1,5,11,-2,0,-2
1501625436843037,0,-1,-2,-5,-6,-16,-2,0
1501625436843037,0,0,1,-5,-14,-5,5,1
1501625436857048,0,-1,-1,1,3,15,-2,1
1501625436857048,-2,0,-3,-4,1,24,4,1
1501625436866060,-1,-4,-3,-1,0,-15,-1,-1
1501625436866060,2,-1,2,-4,-3,0,-4,-2
1501625436881096,-2,-3,-4,1,3,3,3,0
1501625436881096,0,5,-2,-1,-16,11,2,2
1501625436882066,-1,-2,0,-3,-2,-18,0,-1
1501625436882066,-1,-3,-3,2,5,-19,-4,-5
1501625436894101,2,-2,-1,-3,-2,37,1,-2
1501625436894101,-1,2,-3,-2,-2,-14,-5,-1
1501625436903110,-2,-2,0,0,-4,-1,-1,-1
1501625436903110,0,-3,-2,-4,-8,-12,-3,1
1501625436917150,-1,-5,0,1,1,-7,0,-3
1501625436917150,-2,-2,-2,3,2,-31,-5,-2
1501625436926096,0,-1,0,-1,0,39,6,0
1501625436926096,0,-1,0,3,3,2,1,1
1501625436941139,-3,-2,0,-3,-6,-12,-3,-2
1501625436941139,-2,-1,-5,-4,-2,17,-2,1
1501625436942115,-2,0,-1,-3,-3,14,3,1
1501625436942115,0,-1,-1,3,-1,-26,-2,-3
1501625436954175,0,1,-2,-2,1,28,1,-1
1501625436954175,-2,3,0,1,-2,-11,-5,-4
1501625436963154,-2,1,-2,-1,1,12,0,-2
1501625436963154,1,-3,0,-1,-1,11,2,0
1501625436977137,0,-1,0,1,2,-15,-3,1
1501625436977137,0,-1,-2,-3,4,31,2,-1
1501625436986168,-2,0,-2,0,-6,-7,-3,-2
1501625436986168,0,-2,-3,-4,-4,-21,-2,1
1501625437001186,1,0,0,-2,7,36,9,3
1501625437001186,-3,0,1,0,-3,-20,0,2
1501625437002150,-2,-1,0,3,7,6,-2,-1
1501625437002150,-5,-3,-1,-3,-1,-2,-9,-5
1501625437014186,2,-2,2,-3,-9,-16,-2,1
1501625437014186,0,0,-2,5,4,24,3,3
1501625437023196,1,-2,-1,2,8,10,4,1
1501625437023196,-1,0,0,1,0,-8,-1,-2
1501625437037231,-1,-1,-3,0,7,-2,-6,-2
1501625437037231,1,1,2,-2,-12,-19,-6,-3
1501625437046187,0,-3,-3,-1,11,21,-5,-1
1501625437046187,1,-2,2,1,-2,-37,-6,-1
1501625437061191,-3,0,-2,-1,-3,0,3,-1
1501625437061191,0,2,0,2,6,41,11,1
1501625437062198,-2,0,2,-2,-4,5,-1,-1
1501625437062198,-2,-1,-3,0,9,15,-4,-7
1501625437074260,2,1,-1,-3,-12,-29,-2,1
1501625437074260,-2,1,-2,-3,-5,20,1,-2
1501625437083208,1,1,2,0,3,17,-2,0
1501625437083208,0,-6,-1,-5,-10,-9,-6,1
1501625437097255,-1,-2,-2,2,4,0,3,0
1501625437097255,-1,-2,-1,-1,3,-15,-3,0
1501625437106231,0,1,2,1,-8,41,6,3
1501625437106231,0,-3,-1,-2,7,-7,5,0
1501625437120292,-1,-2,-3,-1,-16,-34,-10,-5
1501625437120292,0,2,-1,0,9,4,-2,1
1501625437122264,-1,2,0,0,-6,-38,1,-1
1501625437122264,-3,2,0,0,3,33,-2,-2
1501625437134303,0,-1,-1,3,8,-10,2,-2
1501625437134303,-4,-3,-5,-10,-24,-22,-3,-1
1501625437143250,0,0,2,4,5,-6,-9,-4
1501625437143250,3,0,2,4,4,23,9,2
1501625437157281,1,-3,-7,-7,-4,8,2,2
1501625437157281,-3,-1,-2,1,-2,-17,-4,-2
1501625437166272,1,-2,2,-3,-1,-36,-6,-2
1501625437166272,-2,-4,0,-1,9,44,3,-3
1501625437180333,2,2,-2,4,2,-3,-4,2
1501625437180333,1,2,0,-2,-2,23,-1,0
1501625437182307,-1,0,-1,-1,7,9,-1,-2
1501625437182307,0,-3,1,3,-2,-43,-8,-3
1501625437194316,0,-1,-1,0,6,13,-1,-5
1501625437194316,-3,-1,-3,-1,2,-3,1,1
1501625437203320,-3,-1,-1,-5,-7,-18,-5,-3
1501625437203320,-2,-2,-1,2,4,-9,-3,-2
1501625437216478,-1,0,-3,-2,-5,13,-1,0
1501625437216478,0,0,-3,-6,-15,-61,-13,-4
1501625437225419,0,-1,3,3,7,55,8,1
1501625437225419,0,-4,-2,-4,-1,-4,0,-1
1501625437240462,-1,3,-2,1,-9,-21,6,2
1501625437240462,-3,1,-3,2,10,35,-1,-2
1501625437246463,-1,0,0,-3,-8,-33,-7,0
1501625437246463,-1,-1,-3,-1,-6,15,-5,-1
1501625437254505,-2,0,1,1,1,14,-1,-3
1501625437254505,1,-2,0,3,0,-9,-1,1
1501625437263448,-1,-5,-1,-1,-1,-2,1,-1
1501625437263448,1,0,-3,-2,-6,-22,-3,-3
1501625437276460,-3,1,-4,0,11,-5,0,1
1501625437276460,1,0,3,2,-2,-9,0,-2
1501625437285491,0,-4,-1,1,2,-9,-2,3
1501625437285491,0,-3,0,0,-5,-1,1,1
1501625437300504,0,1,-3,-4,-6,-2,-5,-4
1501625437300504,-3,1,0,-3,-1,1,0,-2
1501625437306539,-2,-1,1,2,0,-17,-2,0
1501625437306539,0,-2,0,1,3,7,3,0
1501625437314544,-2,1,-2,0,-3,2,1,-2
1501625437314544,-2,-1,-2,-1,0,2,1,-2
1501625437323502,-1,-7,-2,-2,0,-12,-4,1
1501625437323502,-2,1,-1,0,8,31,6,2
1501625437336561,-1,-1,-3,-7,-20,-11,-7,-4
1501625437336561,-3,2,-1,-1,0,20,5,-1
1501625437345533,-1,-1,2,-1,6,8,2,-1
1501625437345533,-1,-4,-1,-3,-6,-25,-7,-4
1501625437359536,-1,1,-4,-1,1,13,1,0
1501625437359536,2,1,0,0,3,18,6,6
1501625437368522,-1,-1,0,-2,-7,-26,3,-1
1501625437368522,-1,1,-1,0,11,49,-2,-2
1501625437374557,2,1,-1,0,-2,-2,0,0
1501625437374557,-2,-1,3,4,2,-22,-2,3
1501625437383536,-1,-3,1,-1,1,-5,1,0
1501625437383536,1,0,-1,-2,-7,-14,1,2
1501625437396571,-1,0,-3,-1,8,6,1,-1
1501625437396571,-2,1,-1,1,5,16,1,2
1501625437405578,2,-2,1,2,4,-6,-6,-6
1501625437405578,-1,-4,-3,-5,-12,-37,-5,-4
1501625437419617,-2,3,-4,1,-1,17,4,0
1501625437419617,-1,-2,0,-4,-6,-57,-3,-2
1501625437428564,1,-3,3,1,9,44,-2,-1
1501625437428564,-1,-4,-2,1,5,-8,-3,-2
1501625437434596,-3,-1,-4,-2,-15,-32,-9,-4
1501625437434596,0,1,-1,0,1,9,1,1
1501625437443602,-2,-3,-2,-3,3,9,0,0
1501625437443602,-2,-1,-1,1,-1,-6,0,-1
1501625437456642,0,1,-1,-2,-4,-13,1,1
1501625437456642,-2,-1,-3,-1,2,9,-1,-4
1501625437465620,-2,-4,0,-3,-6,-4,-3,-1
1501625437465620,0,-3,-1,-1,-2,-31,2,0
1501625437479605,2,0,-1,2,-10,-31,1,0
1501625437479605,2,-1,-1,2,22,56,-1,1
1501625437488612,-2,-4,-1,1,4,34,2,-4
1501625437488612,-3,-1,-1,1,-9,3,0,-1
1501625437494610,0,1,-3,-3,3,-9,0,0
1501625437494610,2,1,1,6,5,-26,0,2
1501625437503623,0,-4,-4,-4,7,31,4,-1
1501625437503623,0,-1,-1,-5,-12,7,-5,-5
1501625437516685,-1,2,-2,2,5,46,2,-1
1501625437516685,0,-1,-2,-1,-3,15,-1,0
1501625437525664,3,-1,2,1,-13,-50,-1,2
1501625437525664,-2,-2,-2,-3,-3,-7,-2,-4
1501625437539706,-2,0,-3,-2,-2,-22,-10,-3
1501625437539706,-3,-1,-1,-2,-3,20,-1,-2
1501625437548649,-2,-5,1,2,4,-7,4,1
1501625437548649,1,0,-1,-1,-5,-22,-3,1
1501625437554716,0,0,0,2,3,19,5,-1
1501625437554716,-3,0,-2,-4,-3,-15,-2,0
1501625437563687,-1,-4,-1,-2,-2,5,-2,-2
1501625437563687,1,0,-1,1,1,-5,3,3
1501625437576697,0,2,-1,0,-2,-2,0,0
1501625437576697,-1,0,-3,2,-3,-15,0,0
1501625437585706,-2,-4,1,-6,-6,-35,-5,-2
1501625437585706,2,-5,-1,3,13,38,-5,-2
1501625437599689,-3,2,-1,0,4,15,-3,-2
1501625437599689,-2,-1,-3,-5,-10,-5,-2,-1
1501625437608721,-1,-3,0,-1,-2,-44,-8,-2
1501625437608721,-1,-2,-1,0,4,5,3,-1
1501625437614753,-3,-2,-5,-3,-6,-8,-5,-2
1501625437614753,-3,1,0,-1,2,60,10,-1
1501625437623731,-1,-3,0,-3,-8,-3,-5,-1
1501625437623731,-2,-3,1,5,20,20,4,0
1501625437636774,-1,1,-4,-3,-17,5,1,0
1501625437636774,1,-1,-1,-1,-2,-28,-4,-2
1501625437645748,3,-3,4,1,-2,2,-3,0
1501625437645748,-2,-2,-3,0,7,0,3,-1
1501625437659731,-2,1,-1,0,-2,-18,-5,-1
1501625437659731,-1,0,-3,-3,-4,-11,1,1
1501625437668762,0,-3,-1,-1,15,59,2,-1
1501625437668762,1,-3,2,-2,-11,-17,-5,2
1501625437674774,1,4,-2,2,8,25,9,4
1501625437674774,-1,-1,-2,-5,-12,-22,-2,-2
1501625437683744,-2,-3,0,1,-1,13,2,-4
1501625437683744,-1,-1,-2,-6,-12,-32,-8,-1
1501625437696811,1,3,1,3,3,7,2,3
1501625437696811,-3,-1,-2,-2,-3,-8,-3,-4
1501625437705784,0,-1,-1,-5,-15,-44,-6,-2
1501625437705784,0,-3,-2,2,25,80,6,1
1501625437719800,0,3,-1,2,0,-8,-5,-1
1501625437719800,-2,-1,-2,0,-6,11,6,2
1501625437728789,-2,-4,-1,-2,3,-29,-4,-3
1501625437728789,0,-1,0,-3,-12,-16,-2,-2
1501625437742786,1,-1,-2,-2,8,28,11,2
1501625437742786,-1,1,2,4,2,-10,-7,-1
1501625437744787,-4,-4,-3,-3,-19,-27,0,0
1501625437744787,1,0,3,2,5,24,3,0
1501625437756858,-2,2,-1,0,-4,-18,-8,-2
1501625437756858,-1,1,-1,-3,-1,1,2,1
1501625437765801,0,-4,-1,0,1,-19,5,-1
1501625437765801,-2,-1,0,-2,-5,13,0,-4
1501625437779824,-2,1,-3,1,4,-16,-6,-3
1501625437779824,-2,-1,-1,-8,-12,15,-10,0
1501625437788843,2,-5,3,4,6,20,3,1
1501625437788843,-1,-3,-2,-2,-12,-15,-3,-5
1501625437802890,-1,0,-2,1,7,-4,-1,-2
1501625437802890,0,-1,-2,-4,-7,-25,-4,-1
1501625437804858,-1,-1,1,0,10,19,-1,-2
1501625437804858,1,1,2,3,-3,24,4,2
1501625437816900,-3,1,-3,-2,-7,25,7,3
1501625437816900,-1,-3,-2,-3,1,13,0,1
1501625437825845,-3,-5,-1,-2,-2,-8,-2,-1
1501625437825845,-1,0,1,-3,-1,-7,1,1
1501625437839888,-2,0,-3,-2,1,13,1,-2
1501625437839888,-1,-2,-1,2,-3,-9,4,-1
1501625437847923,2,-5,-1,1,8,34,7,1
1501625437847923,-2,-4,-2,-4,-9,-18,-4,-6
1501625437862932,-1,3,-2,-1,-5,-15,-5,1
1501625437862932,-1,1,0,0,1,6,2,-2
1501625437864872,0,0,1,-2,-9,5,-4,-2
1501625437864872,-2,-1,-2,1,-12,-42,-4,-3
1501625437876881,-1,4,-1,2,5,7,-3,0
1501625437876881,0,-1,-3,-6,1,4,2,3
1501625437885887,-2,-1,1,0,1,-8,-6,-3
1501625437885887,0,-1,1,-1,-2,-14,3,1
1501625437899075,-3,1,-3,-2,-4,-30,-6,-3
1501625437899075,-2,0,1,1,-2,35,9,4
1501625437908026,-1,-5,0,-3,5,6,-5,-4
1501625437908026,-1,-3,-1,-1,6,-12,-2,-1
1501625437923093,-2,3,-1,0,2,22,1,-2
1501625437923093,-3,-1,-3,-1,0,-8,-6,-1
1501625437925062,0,-1,1,-1,-1,6,1,-1
1501625437925062,2,-1,2,2,11,18,1,4
1501625437937104,-3,-2,-4,-7,-19,-29,-5,-3
1501625437937104,0,1,1,1,-5,-30,-4,1
1501625437946049,-3,-2,-1,-1,-2,4,2,-3
1501625437946049,-1,1,0,2,7,5,2,0
1501625437959067,1,2,0,-2,-3,8,5,3
1501625437959067,-1,-1,-2,-3,-5,-22,-1,-2
1501625437968064,0,-6,1,0,5,8,4,2
1501625437968064,-2,-2,-1,-3,-3,24,-3,-8
1501625437983134,-2,0,1,3,2,-1,0,0
1501625437983134,-1,0,-1,-1,-7,-21,-4,0
1501625437985105,2,-1,1,1,1,-14,-4,0
1501625437985105,-3,-3,-2,-2,-7,-22,-4,-2
1501625437997144,2,1,-3,-1,0,14,2,-2
1501625437997144,-1,1,-2,3,13,29,-7,-5
1501625438006121,-2,-5,-1,-3,-11,-8,-6,-3
1501625438006121,1,0,-1,-1,3,-4,0,2
1501625438019158,-3,1,-3,-7,-21,-11,-4,-1
1501625438019158,0,-1,-1,2,-6,11,1,0
1501625438028107,0,-3,0,-3,5,15,3,0
1501625438028107,-3,-5,-1,-2,-7,-13,-7,-3
1501625438043147,-2,3,-2,1,1,2,1,2
1501625438043147,0,2,-1,5,7,-12,3,0
1501625438045118,-1,-4,-3,-6,-22,-9,0,0
1501625438045118,3,-1,2,2,3,-30,-1,1
1501625438057186,-2,1,-3,-1,1,-14,-2,-3
1501625438057186,-1,1,1,-2,-3,69,3,-1
1501625438066133,-3,-2,-1,-1,-3,-55,-3,-4
1501625438066133,-1,-2,-1,-1,6,43,-1,0
1501625438079199,-1,-1,-2,1,-5,3,-1,0
1501625438079199,2,3,1,0,14,-24,0,4
1501625438088177,-2,-2,1,3,6,-4,-7,-3
1501625438088177,-1,-5,0,0,-5,-14,-1,-4
1501625438103217,-1,-1,-5,-5,1,-16,7,1
1501625438103217,-1,1,0,1,2,-4,-7,-3
1501625438105190,2,-3,0,1,6,23,2,1
1501625438105190,-1,-3,-2,-1,-2,-27,-6,-6
1501625438117228,1,0,-2,2,9,37,3,2
1501625438117228,-3,-2,-3,-2,-3,0,-3,-5
1501625438126183,0,-3,0,-1,-2,-23,-3,-1
1501625438126183,2,1,1,1,5,22,-2,-2
1501625438139243,0,1,-2,-2,3,7,-7,-2
1501625438139243,1,2,1,-2,-7,-16,2,1
1501625438148220,-4,-4,-1,-1,6,-11,3,-2
1501625438148220,-1,-1,-1,-1,-1,10,2,2
1501625438163262,-2,3,-1,1,2,-6,-2,0
1501625438163262,0,1,-1,0,0,1,3,2
1501625438165204,0,-5,-1,-4,-2,-17,-2,-3
1501625438165204,1,-1,-1,-2,-5,-23,-2,-1
1501625438177218,-2,3,1,0,2,12,-3,-1
1501625438177218,-4,2,-2,1,-4,-41,2,0
1501625438186245,-2,-3,0,0,4,55,-1,-3
1501625438186245,-1,-6,-1,-4,1,-7,0,-1
1501625438199233,0,1,-2,0,1,4,-4,-1
1501625438199233,0,0,0,-1,-5,11,2,2
1501625438208234,-3,-3,0,2,5,-9,-2,1
1501625438208234,-1,-3,-3,-4,-10,-15,-5,-4
1501625438223272,1,1,0,1,1,15,4,4
1501625438223272,-1,-1,-2,-5,-3,-33,-6,-1
1501625438225246,0,-4,-1,-1,5,20,2,-1
1501625438225246,-2,-3,-1,3,7,25,6,1
1501625438237255,-2,1,-2,0,-10,-35,-5,-1
1501625438237255,-1,0,-3,-2,2,51,5,-1
1501625438246289,1,-2,0,1,-5,-26,-4,0
1501625438246289,0,0,0,3,3,-6,0,-1
1501625438259270,-1,3,1,0,3,13,5,3
1501625438259270,-3,-1,-2,-3,-16,-41,-8,-4
1501625438268283,0,-2,2,3,6,25,-4,-3
1501625438268283,0,-1,-1,-5,-15,-30,-7,-2
1501625438283292,-1,3,0,1,6,23,2,2
1501625438283292,0,-3,-3,-1,5,26,-5,-1
1501625438285288,1,-3,3,3,0,-30,5,3
1501625438285288,-1,-2,-2,-3,-5,-10,-3,-3
1501625438297297,-4,0,-3,1,-4,-13,-2,-4
1501625438297297,-4,-4,-4,-7,3,17,-3,-2
1501625438306304,-1,-5,-2,-2,-2,-14,-3,-3
1501625438306304,-1,-1,1,1,-1,2,-1,0
1501625438319341,-4,-1,-6,-12,-19,-14,-5,-5
1501625438319341,0,3,1,1,6,20,4,4
1501625438328318,-1,-3,-2,-3,0,-9,4,-1
1501625438328318,0,-4,-1,-1,-1,-9,1,-1
1501625438343358,0,2,-1,0,1,3,-7,-2
1501625438343358,0,-1,0,-1,-1,9,4,1
1501625438345331,-2,0,-3,-4,1,30,1,2
1501625438345331,0,-2,0,1,4,11,4,2
1501625438356368,-1,2,-1,2,-1,-4,0,0
1501625438356368,-1,-2,-1,0,-17,-21,1,0
1501625438366345,1,-2,3,3,2,-1,-5,-2
1501625438366345,-3,-1,-2,-1,4,28,0,-4
1501625438379384,-3,1,-2,-3,-1,10,-1,1
1501625438379384,0,2,0,3,-6,-40,-6,0
1501625438388361,0,-2,0,1,-4,7,-3,-3
1501625438388361,0,-2,1,-1,-5,-42,-6,-1
1501625438402399,-1,0,0,-3,1,36,1,1
1501625438402399,-2,-1,-1,1,0,-15,-6,-3
1501625438409382,1,0,0,-1,-2,-12,-6,-3
1501625438409382,-2,1,-1,1,14,32,7,2
1501625438425416,-2,1,-2,-1,-13,-30,-5,-3
1501625438425416,-3,-1,0,1,1,10,-1,-2
1501625438427392,3,-3,-1,-5,-20,-15,-2,1
1501625438427392,2,-1,1,5,9,2,-3,-1
1501625438439425,-1,-1,0,-2,-1,1,4,0
1501625438439425,-1,0,0,0,12,30,3,0
1501625438448404,0,-2,-1,-5,-11,-60,-3,-2
1501625438448404,-1,-3,-1,-3,-7,-3,-8,-3
1501625438462442,1,-1,-4,-1,1,5,6,2
1501625438462442,1,-2,0,2,10,29,7,4
1501625438469447,-4,-5,2,5,14,3,3,-1
1501625438469447,-3,-2,-3,-16,-34,-38,-10,-4
