timestamp,emg1,emg2,emg3,emg4,emg5,emg6,emg7,emg8
1501625553782486,-4,20,-13,2,-4,16,9,-1
1501625553782486,-6,-9,3,-8,2,2,3,1
1501625553783486,1,-14,16,9,15,-16,-9,-3
1501625553783486,2,-3,-8,-1,-8,-3,-24,-8
1501625553784511,-3,12,-13,-8,-15,6,3,3
1501625553784511,-2,10,1,2,3,2,-12,2
1501625553784511,1,-10,11,1,5,-13,-23,-1
1501625553784511,10,-5,-6,-1,2,-1,38,-5
1501625553795555,-1,23,-6,-2,-8,-1,-35,-3
1501625553795555,-10,-7,-3,-4,0,9,5,2
1501625553804514,12,-3,12,5,8,-10,-5,1
1501625553804514,0,4,-6,-2,1,-7,13,-1
1501625553809588,-4,9,-9,2,-3,9,-8,-1
1501625553809588,-1,-3,4,-3,-9,9,21,3
1501625553824620,-9,-24,-2,-5,3,-15,-3,-4
1501625553824620,4,-1,-3,2,3,-11,-5,-3
1501625553835594,-2,16,-4,-3,-5,15,-3,0
1501625553835594,2,3,4,-2,-10,-6,-27,3
1501625553839605,2,-13,4,-2,-4,-3,10,-5
1501625553839605,-2,3,-4,-1,-6,-7,-18,-3
1501625553855674,-3,1,-6,-1,-5,12,45,5
1501625553855674,7,8,8,7,11,4,0,1
1501625553863681,-1,-13,-5,-10,-3,-4,3,-5
1501625553863681,-2,8,-1,1,-3,4,-2,0
1501625553893660,-3,25,-16,0,-9,19,8,3
1501625553893660,-2,-9,9,-4,6,-13,-11,0
1501625553900667,3,-22,12,3,10,-9,-4,-3
1501625553900667,-1,-1,-10,4,2,-1,-4,-5
1501625553901662,-6,11,-13,-11,-18,12,-12,0
1501625553901662,-1,-4,-1,-5,4,8,37,4
1501625553902668,1,-15,11,1,-3,-34,8,1
1501625553902668,2,8,-7,-5,-5,2,-14,-5
1501625553916663,0,14,-10,-1,-4,17,11,3
1501625553916663,-4,3,7,5,2,3,-6,0
1501625553923667,4,-16,9,0,2,-20,-16,-7
1501625553923667,2,0,-8,-2,-5,-4,-5,-1
1501625553929727,-5,14,-10,1,-5,8,-7,1
1501625553929727,-4,-7,3,-1,3,7,-7,3
1501625553944737,-5,-23,4,-6,-6,-12,40,-3
1501625553944737,1,10,-9,-5,-2,-4,-14,-4
1501625553952772,1,16,-7,-5,-8,13,6,0
1501625553952772,-7,-9,-2,0,6,-8,-19,-3
1501625553959830,-3,-26,2,2,11,-2,-22,-7
1501625553959830,6,22,-3,-3,-14,3,19,2
1501625553975834,-9,6,-1,6,-1,2,20,-1
1501625553975834,6,5,7,2,7,4,15,6
1501625553981789,-7,-12,-6,-7,1,-14,-21,-7
1501625553981789,-5,-8,-4,2,-3,3,6,-4
1501625553989853,1,4,0,-1,-4,14,17,4
1501625553989853,-3,-9,1,0,0,-2,0,-1
1501625554004861,8,5,3,2,3,1,22,1
1501625554004861,-2,8,-1,1,0,-24,-52,-3
1501625554012868,-3,2,-4,-10,0,8,-7,1
1501625554012868,0,-6,-3,1,-1,0,2,0
1501625554019832,-3,-5,3,-3,-1,-1,-24,-2
1501625554019832,6,1,-2,3,2,-7,4,-3
1501625554035828,-1,7,-2,1,1,-1,-9,-2
1501625554035828,-2,-8,-2,-5,0,4,-3,3
1501625554041888,3,-2,-1,-1,4,-12,-7,2
1501625554041888,-2,0,-2,0,-9,14,22,3
1501625554049893,0,5,3,3,-4,-2,-5,-2
1501625554049893,-2,-8,-4,-4,-2,-3,-2,0
1501625554064879,1,3,2,6,5,-1,-1,4
1501625554064879,-2,2,-1,-3,-6,11,7,-1
1501625554072910,-1,0,1,6,2,-1,-7,1
1501625554072910,-4,-3,-2,-12,-20,-4,29,-4
1501625554079915,-3,-14,-1,3,6,10,-13,-1
1501625554079915,-7,3,-3,4,8,-4,4,-2
1501625554094930,3,8,1,-1,0,-3,-22,-3
1501625554094930,2,4,3,3,7,-3,-3,-6
1501625554101931,-7,-12,-4,-5,-3,-2,-2,-6
1501625554101931,0,4,0,0,-5,1,28,0
1501625554109934,0,5,-1,2,-1,-4,-23,2
1501625554109934,-1,-3,2,2,-5,-1,-13,-2
1501625554124945,-1,-13,-5,-8,-15,0,-15,-6
1501625554124945,-2,-2,-5,1,7,14,0,-1
1501625554132949,0,-4,-1,-1,0,-3,33,5
1501625554132949,1,10,7,0,-5,-7,-6,0
1501625554139959,-3,2,0,0,-1,-8,4,-2
1501625554139959,-1,2,-1,1,4,7,-11,0
1501625554155053,-1,-4,-2,-5,-9,-6,-7,-2
1501625554155053,-7,-18,-5,1,9,2,1,-5
1501625554164013,1,1,-2,2,5,5,1,-1
1501625554164013,6,14,3,3,9,-7,-7,5
1501625554170058,2,12,5,6,7,-1,-10,-6
1501625554170058,-2,-10,-4,-9,-9,-7,-32,-4
1501625554185125,4,-1,0,3,5,9,26,4
1501625554185125,-5,-10,-3,0,-6,-5,4,-1
1501625554193237,-3,-6,-4,-11,-5,9,11,-1
1501625554193237,7,7,5,5,1,-11,-18,1
1501625554207247,-2,-6,-7,-6,-1,-7,-10,-2
1501625554207247,-1,-1,-2,-1,-7,-1,-1,-3
1501625554215280,-3,1,0,0,7,5,30,4
1501625554215280,2,3,1,-2,-5,4,-9,-6
1501625554222421,0,0,-6,-4,6,-10,-26,-2
1501625554222421,-4,-6,-2,-6,-18,4,8,-2
1501625554229428,-2,-4,2,1,4,-6,-19,0
1501625554229428,1,-3,-1,5,2,2,11,4
1501625554244517,7,18,1,2,4,2,10,3
1501625554244517,3,7,1,-5,-5,-2,-14,0
1501625554252524,-3,-3,2,3,3,-9,-31,-3
1501625554252524,-1,0,0,-3,-2,-4,2,2
1501625554267536,-3,-9,-5,3,1,3,2,-5
1501625554267536,-5,-1,-3,-7,-5,4,19,2
1501625554275620,1,3,6,1,0,0,-1,-3
1501625554275620,-1,0,-1,4,11,-6,54,3
1501625554283570,1,3,2,0,-11,4,26,1
1501625554283570,-2,1,-2,1,7,-1,-11,-2
1501625554289596,0,-8,0,-1,3,3,10,-3
1501625554289596,-1,-2,0,-1,1,-2,-10,-1
1501625554304642,-3,-13,-4,1,0,-7,-16,-2
1501625554304642,-1,12,3,-5,-7,11,17,1
1501625554312646,-1,-2,0,3,-2,-8,-17,-2
1501625554312646,-1,5,0,-3,-2,-5,-6,-2
1501625554327618,1,1,-2,-2,-2,4,10,-1
1501625554327618,-6,-8,-3,-3,-2,-5,-12,-2
1501625554335664,8,-9,-1,-1,4,5,33,-4
1501625554335664,3,7,1,6,-2,8,16,2
1501625554342629,0,4,-5,-16,-13,6,9,-1
1501625554342629,0,-3,-1,-2,-14,-15,-26,-3
1501625554349679,-5,4,2,0,-1,-4,-16,-2
1501625554349679,-1,-6,0,1,2,3,14,0
1501625554364629,5,8,-3,1,0,-4,9,0
1501625554364629,-2,-4,-4,1,6,6,0,0
1501625554372634,2,-2,2,-5,-6,-1,-4,2
1501625554372634,-2,-9,1,4,3,1,-16,-4
1501625554387644,-4,0,-7,-2,-9,-10,11,-3
1501625554387644,1,1,2,8,16,16,11,6
1501625554395665,-9,-9,0,-4,-5,0,-12,-4
1501625554395665,3,6,-2,-5,-6,-12,-14,-1
1501625554402655,-6,-5,-7,-5,-6,-10,-27,-4
1501625554402655,2,1,-2,-4,-2,-3,19,-2
1501625554409670,-3,-1,3,1,5,2,12,5
1501625554409670,-1,-6,-3,-4,-2,0,-6,-4
1501625554424690,2,8,3,4,-2,-3,-1,0
1501625554424690,-8,-6,0,-2,2,1,-20,-9
1501625554431675,8,2,-3,0,2,-5,-7,0
1501625554431675,-3,0,-1,-3,-3,-9,-18,-2
1501625554446686,-1,0,0,1,0,0,-20,-3
1501625554446686,3,9,3,7,12,4,4,-1
1501625554455692,-6,-8,-5,-2,-4,-8,-5,-2
1501625554455692,1,-6,-1,-4,-9,-1,-1,-2
1501625554461696,-3,-2,-1,-2,-4,2,13,-1
1501625554461696,-6,-10,-5,0,-6,-6,-29,-4
1501625554469702,0,4,3,-2,8,-7,16,4
1501625554469702,0,-4,-7,-8,-10,-14,-19,4
1501625554484713,-8,-7,-6,0,1,2,-19,-4
1501625554484713,1,10,3,-4,-3,-3,-1,1
1501625554491718,-3,-9,-1,0,-2,-6,-8,-6
1501625554491718,-2,-9,-4,2,5,-2,-2,-1
1501625554506783,-5,5,-2,-3,-4,-1,-4,-3
1501625554506783,-3,0,-1,2,3,1,19,2
1501625554515788,-1,1,1,-2,-1,0,-7,0
1501625554515788,-2,-2,1,3,12,4,-2,-2
1501625554521876,1,-2,-3,-6,-24,4,6,0
1501625554521876,-5,-6,-4,-1,6,7,26,-1
1501625554537888,-1,2,1,-3,-4,-12,2,3
1501625554537888,0,-5,-1,-2,6,16,18,-4
1501625554544892,3,12,-1,6,4,6,47,5
1501625554544892,-6,-9,-5,-6,-8,-4,-12,-3
1501625554551898,-2,-6,0,-3,0,2,5,0
1501625554551898,2,0,-2,1,2,-2,-34,-3
1501625554566908,0,-2,-4,2,8,-5,11,0
1501625554566908,1,8,1,-2,-6,7,1,3
1501625554574872,-2,-4,1,-4,-2,4,12,-1
1501625554574872,-2,-5,-1,-2,-9,-9,-8,-5
1501625554581865,-4,-7,-3,2,7,9,-13,-2
1501625554581865,8,9,5,0,-10,-16,-10,2
1501625554597874,-3,-1,3,-3,-1,5,8,1
1501625554597874,-1,-4,0,4,1,-6,7,-2
1501625554604932,-3,3,-5,-10,-7,-8,-23,-3
1501625554604932,-2,-10,-1,3,9,4,7,1
1501625554611938,7,4,6,2,-1,-2,-13,-2
1501625554611938,-3,0,2,-2,-6,-8,21,0
1501625554626948,1,9,-1,2,8,4,0,-2
1501625554626948,1,8,1,2,-1,-4,5,-4
1501625554634991,-3,-9,-5,-8,-20,-2,8,-2
1501625554634991,-3,-4,-1,3,9,1,-4,-2
1501625554642009,5,15,2,5,9,2,-16,-1
1501625554642009,-1,-1,0,-3,-12,4,1,1
1501625554658058,-2,-8,1,4,7,1,12,-2
1501625554658058,0,1,1,-1,0,1,11,-1
1501625554665009,1,5,-3,0,-6,1,0,0
1501625554665009,2,8,2,4,9,6,19,-1
1501625554672067,-2,-9,2,4,9,1,1,1
1501625554672067,1,-6,-4,-8,-21,-7,-7,-1
1501625554687041,0,5,1,0,-1,-4,-36,-2
1501625554687041,-2,-6,-4,-3,-10,-3,-12,0
1501625554695121,-3,-2,1,5,8,-8,-12,-4
1501625554695121,-3,-10,-4,-10,-6,-4,-3,1
1501625554702085,3,7,2,4,1,1,1,-2
1501625554702085,-1,1,-5,-2,3,1,-6,1
1501625554718103,-4,-13,-1,-3,0,-3,-9,1
1501625554718103,-2,2,-1,4,7,0,-4,-4
1501625554725087,1,3,-1,0,-7,0,25,3
1501625554725087,0,5,2,3,2,4,3,-2
1501625554732093,0,3,0,-6,1,-4,-19,-2
1501625554732093,-2,-4,-1,-4,-9,1,7,0
1501625554747142,-3,-1,-3,1,5,0,3,-2
1501625554747142,-4,-7,-5,-2,1,3,9,-1
1501625554755165,-6,-14,-4,0,0,0,18,-2
1501625554755165,4,4,3,5,13,6,-3,-3
1501625554762169,-3,2,-1,1,-8,-1,-9,0
1501625554762169,-1,1,0,-2,-5,-7,-7,-1
1501625554778180,2,2,1,-3,2,-4,-28,-2
1501625554778180,2,3,2,-1,0,-4,-16,-2
1501625554785156,0,-2,-4,-3,-6,9,13,2
1501625554785156,-5,-7,-6,-5,-8,0,-10,1
1501625554792191,-4,-16,-1,-1,-1,-4,2,-1
1501625554792191,-1,11,1,-1,-4,-11,-14,-5
1501625554807203,-1,1,-5,-4,-9,3,-11,4
1501625554807203,8,-1,5,9,9,0,-21,2
1501625554815164,-4,-7,-2,-10,-5,-2,12,1
1501625554815164,-1,-6,0,2,3,0,-32,-4
1501625554822175,-1,4,-4,-2,1,2,-10,-1
1501625554822175,-5,-4,-1,-3,1,5,-10,-1
1501625554838187,2,-2,0,-1,-5,-3,9,-1
1501625554838187,1,-7,-3,-1,1,-1,7,-1
1501625554845227,1,3,2,4,4,1,-14,-2
1501625554845227,1,4,-4,-6,-8,5,25,1
1501625554852231,1,7,6,6,9,-4,-22,-4
1501625554852231,-1,2,0,1,-4,-2,34,5
1501625554867294,-2,-1,-5,-1,5,10,17,-2
1501625554867294,-3,0,1,2,5,-7,-3,1
1501625554875332,3,-7,-2,-8,-8,2,4,-2
1501625554875332,-1,-3,2,6,3,5,13,-1
1501625554889426,-2,-2,-7,-10,-7,-1,4,-3
1501625554889426,-4,1,-3,-8,-11,-8,-19,-2
1501625554897374,7,7,4,5,8,4,29,0
1501625554897374,-3,0,-1,-1,-2,-6,3,0
1501625554912436,-1,3,2,2,-4,2,1,-1
1501625554912436,-3,-8,-1,-3,-1,0,-2,4
1501625554913401,-4,-15,-1,4,7,-2,2,-1
1501625554913401,-1,-7,-4,2,1,-10,-31,1
1501625554927446,-1,12,-1,-6,-7,4,11,0
1501625554927446,-4,1,-1,0,-9,1,9,-2
1501625554935400,-1,-3,-1,-1,0,0,4,-1
1501625554935400,-7,-15,-3,-4,2,-3,-5,-4
1501625554949462,7,20,8,10,5,-2,5,3
1501625554949462,-9,2,0,-2,3,-3,-5,-2
1501625554957473,3,-1,2,1,7,4,7,2
1501625554957473,-5,-4,-3,-6,2,4,3,-5
1501625554972481,0,1,-3,-2,-9,-6,11,-2
1501625554972481,-1,2,-1,-5,0,-1,13,-2
1501625554973429,-2,-3,1,3,-1,-5,2,1
1501625554973429,4,4,2,0,-2,0,5,2
1501625554987493,-4,-6,-4,0,4,1,-15,-2
1501625554987493,-1,-5,-5,0,5,10,26,2
1501625554995498,0,-9,0,-1,-4,1,-18,-3
1501625554995498,3,3,2,3,-1,-7,-5,-1
1501625555009508,-2,4,-3,-5,-5,2,2,-2
1501625555009508,2,3,-3,1,1,-2,-19,-3
1501625555017515,-3,-5,-2,-2,4,-1,-3,-4
1501625555017515,3,2,3,4,-1,7,17,1
1501625555032491,-3,-1,-3,3,0,-1,-9,-5
1501625555032491,1,5,4,2,1,-2,4,3
1501625555033472,1,1,2,1,3,-8,8,2
1501625555033472,-2,-2,0,-3,-2,-2,5,-1
1501625555047480,-3,-8,-7,-5,-9,-4,14,1
1501625555047480,2,6,-1,-1,-2,0,-46,-1
1501625555055544,-2,3,2,0,0,-13,-14,-3
1501625555055544,0,-4,0,0,1,-4,-8,-4
1501625555069553,0,5,-1,1,1,-2,-18,-1
1501625555069553,-1,-4,-2,2,4,4,14,0
1501625555077645,-3,-13,-3,-8,-13,-7,-3,0
1501625555077645,-2,0,-4,-8,1,2,3,-2
1501625555092609,3,2,0,3,0,1,9,-1
1501625555092609,-2,-2,-2,-2,3,-3,28,1
1501625555093601,-1,-4,0,-1,3,1,2,0
1501625555093601,0,-7,-1,3,0,7,21,2
1501625555107607,-1,2,-3,-4,-2,1,-29,2
1501625555107607,-3,-6,-6,-2,-9,1,-14,-1
1501625555115670,0,2,3,4,1,3,8,0
1501625555115670,-3,-4,-3,-2,-1,-3,-3,-2
1501625555129682,0,9,0,-2,-10,2,9,2
1501625555129682,0,4,1,1,-2,5,-7,-1
1501625555137660,-4,-2,-1,-2,-4,-4,21,-2
1501625555137660,-1,-6,0,1,9,1,-6,-2
1501625555152653,3,13,-2,-4,-9,3,2,2
1501625555152653,0,4,0,1,-7,8,38,3
1501625555153654,4,-5,-1,-5,-6,-4,-19,0
1501625555153654,-4,-3,-1,0,1,-8,-10,-4
1501625555166662,0,-3,-2,0,3,0,-2,3
1501625555166662,-3,-1,-2,0,3,1,-2,-4
1501625555175656,1,-6,-1,-3,-1,-4,-8,0
1501625555175656,-1,-6,3,4,1,0,0,3
1501625555189665,-3,2,-4,-2,-2,0,-5,-4
1501625555189665,0,11,1,1,7,-4,-14,-1
1501625555197672,-2,-3,-2,0,-3,-6,-5,-3
1501625555197672,-5,-8,0,-8,-8,3,-2,0
1501625555212697,0,-4,-1,5,13,6,3,0
1501625555212697,-4,0,-4,-4,-3,-1,14,-5
1501625555213683,2,-3,2,1,1,-1,-2,0
1501625555213683,3,3,3,0,-1,0,19,0
1501625555227711,-7,-8,-5,2,7,7,2,-2
1501625555227711,0,-3,-1,-7,-6,-1,-8,1
1501625555235755,1,-1,-1,1,0,-2,23,4
1501625555235755,-4,-11,-5,-3,-8,-2,6,-3
1501625555249764,1,6,3,2,4,-8,-12,0
1501625555249764,-1,3,0,2,-5,-7,-17,2
1501625555257770,-1,5,2,0,-1,-7,-17,-8
1501625555257770,2,2,0,-1,-5,-8,-25,0
1501625555272782,-3,-2,-5,-6,-3,2,2,-8
1501625555272782,-2,-10,2,2,1,1,-19,0
1501625555273725,-1,-5,0,0,3,-5,-12,-2
1501625555273725,2,2,-1,1,0,-3,0,-2
1501625555287253,-2,2,-1,1,-2,4,8,1
1501625555287253,-1,-6,-2,-3,-8,-5,-15,1
1501625555294771,1,-3,0,1,1,8,-1,0
1501625555294771,4,7,2,1,-2,-3,1,-1
1501625555309865,-2,5,-3,-3,-5,4,1,0
1501625555309865,0,-1,0,2,6,0,13,-1
1501625555317870,0,0,6,5,1,-5,0,0
1501625555317870,2,4,-4,-4,-7,-11,-11,-3
1501625555332880,-2,-1,-2,-6,-10,4,6,-1
1501625555332880,-2,2,-1,-2,1,-1,-5,-1
1501625555333839,-1,-5,0,2,2,-5,-6,-2
1501625555333839,2,2,-1,-3,5,-5,-2,-1
1501625555346890,0,9,2,0,-6,0,21,4
1501625555346890,-2,-2,-1,-4,1,2,-13,-1
1501625555355843,-1,0,-3,-5,-3,1,-14,-1
1501625555355843,1,-1,4,3,-3,1,8,0
1501625555369909,-1,-2,-1,0,0,0,-2,-3
1501625555369909,-2,1,-2,-3,-6,-3,3,-1
1501625555377916,-1,-5,-2,0,0,-4,17,-1
1501625555377916,0,-1,-1,0,2,5,-3,-2
1501625555392924,-2,1,0,1,3,0,-14,0
1501625555392924,-3,1,0,0,1,-4,-7,-2
1501625555393924,2,-2,-4,-6,-6,3,59,4
1501625555393924,0,-6,-3,1,2,-7,5,-1
1501625555406991,1,0,0,1,0,0,0,1
1501625555406991,-1,-3,-3,-3,0,6,8,1
1501625555415007,0,-1,-2,0,1,-3,-25,1
1501625555415007,0,-2,1,-1,-2,2,5,-1
1501625555430049,0,2,-1,-1,-2,5,8,0
1501625555430049,-3,-3,0,1,2,-2,-12,-5
1501625555438020,0,-1,2,-3,-1,-4,-11,-7
1501625555438020,0,-1,-1,-1,-1,-4,-10,-1
1501625555455063,-3,2,0,4,2,3,-11,-2
1501625555455063,2,4,1,5,8,7,11,3
1501625555456049,-2,-11,-6,-11,-18,-5,-6,-2
1501625555456049,-1,-2,-3,-5,-4,-6,-17,-2
1501625555467034,0,3,0,1,0,3,19,1
1501625555467034,-4,-3,-2,-6,-4,0,-27,-2
1501625555475083,1,0,5,4,7,-3,-3,-1
1501625555475083,-2,-4,-5,-2,-5,-8,6,0
1501625555490181,0,5,-3,-3,-3,0,-5,4
1501625555490181,1,4,0,2,-4,-4,3,0
1501625555498235,-5,-9,-2,-2,6,-2,-16,-4
1501625555498235,-4,-12,-6,-8,-5,1,18,-2
1501625555512300,1,10,-3,-2,-4,0,-16,-4
1501625555512300,2,6,2,2,-1,0,23,3
1501625555520304,-2,-4,0,1,3,-2,-14,-2
1501625555520304,-1,0,-2,2,5,-2,4,-3
1501625555527312,-2,-6,-3,-3,-3,6,9,1
1501625555527312,-1,-2,0,-1,3,4,-4,-2
1501625555535260,-1,-7,0,-2,1,-1,12,2
1501625555535260,0,6,1,1,-5,-6,-19,-3
1501625555549403,-1,2,0,-1,-5,-2,-8,0
1501625555549403,3,5,-2,-3,-1,1,10,1
1501625555558370,0,1,1,6,-3,-7,-2,-3
1501625555558370,-1,-5,0,2,5,0,-8,-2
1501625555572424,1,8,1,1,2,-2,-2,3
1501625555572424,-4,-8,3,1,-8,-1,-13,-1
1501625555580383,2,3,-1,-3,2,-5,-1,-3
1501625555580383,-1,2,-2,-2,2,1,1,-2
1501625555587418,-2,-3,-2,1,1,-4,-19,-4
1501625555587418,-3,-4,-2,-1,-2,-1,5,-1
1501625555594924,0,-5,0,2,2,0,6,0
1501625555594924,-1,0,-2,0,-4,-3,-8,-4
1501625555609986,-2,-1,-2,3,9,9,16,0
1501625555609986,-1,-1,-3,-9,-6,-6,-28,-3
1501625555617992,1,0,0,1,-4,-5,-4,-1
1501625555617992,0,4,0,-2,-3,5,11,0
1501625555631946,-4,-7,-4,-1,-6,-1,-20,0
1501625555631946,1,5,1,0,2,-3,1,-2
1501625555640009,-2,-3,-2,-1,0,-4,-22,-5
1501625555640009,-2,-6,-5,-1,-2,-4,-2,2
1501625555655018,-2,-2,-3,-2,-5,-1,5,-3
1501625555655018,-1,-5,0,2,2,-2,-19,-2
1501625555655964,-2,-7,-1,-4,-1,-4,0,1
1501625555655964,-2,-4,-3,3,-2,-3,-5,-2
1501625555670030,-2,3,-1,-6,-3,-2,-3,-4
1501625555670030,3,3,1,0,-3,-11,-3,1
1501625555678036,-1,-3,-2,2,6,2,6,-3
1501625555678036,1,4,-2,-7,-5,-3,-11,-2
1501625555692548,-1,-1,1,3,4,11,22,4
1501625555692548,-2,-2,4,1,3,-1,-14,-2
1501625555700680,-3,-5,-4,-5,-4,-4,8,-3
1501625555700680,0,1,-2,1,-1,4,16,0
1501625555715727,-2,4,-6,-4,-4,-9,-10,-2
1501625555715727,-2,-5,-1,-2,3,4,11,-2
1501625555716671,0,-5,2,-2,-5,-5,2,3
1501625555716671,2,4,-1,3,8,6,13,-3
1501625555729737,-2,1,-4,-10,-13,-1,-14,-5
1501625555729737,3,7,4,2,-3,6,12,5
1501625555737741,-1,1,-3,-10,-18,-3,16,1
1501625555737741,-3,-9,-2,3,4,-8,-12,0
1501625555752712,-3,1,-1,0,3,9,-3,2
1501625555752712,-5,-11,-2,-1,-3,-2,23,0
1501625555760757,2,2,0,1,8,-5,-16,-2
1501625555760757,2,0,-1,-2,-8,-1,-5,0
1501625555775768,-4,-10,-1,3,3,1,-18,0
1501625555775768,0,4,5,4,12,3,5,2
1501625555776729,-2,0,-1,-6,-10,-11,-2,2
1501625555776729,2,0,-2,-1,0,10,20,-1
1501625555789780,-4,-2,-5,0,4,-6,1,-2
1501625555789780,-1,-4,-2,-4,-11,3,11,0
1501625555797930,-2,-5,-3,0,2,4,2,-4
1501625555797930,2,1,2,2,2,0,-22,1
1501625555811937,-1,4,-2,-4,-9,2,35,-1
1501625555811937,0,2,3,4,6,4,13,2
1501625555819985,0,1,-4,-3,-4,-5,-5,-2
1501625555819985,-6,2,-4,-4,-8,-7,-12,-7
1501625555834993,1,5,3,0,2,6,22,3
1501625555834993,-2,-10,-2,-3,-4,-1,3,-4
1501625555835953,1,-9,-1,5,12,6,-4,-1
1501625555835953,1,10,-1,1,-1,-1,-5,-1
1501625555849969,1,4,1,-2,-6,-4,0,-2
1501625555849969,-4,0,-4,-7,-4,-4,-22,0
1501625555858010,-6,-7,0,4,2,3,10,-3
1501625555858010,1,1,-3,-2,-4,2,0,0
1501625555872019,-3,-2,-4,-1,4,2,-13,-1
1501625555872019,2,-6,1,-3,0,-4,-22,-3
1501625555880025,-3,-5,5,0,-4,-8,-42,-6
1501625555880025,-1,6,-7,-2,-5,1,30,4
1501625555895500,-3,0,0,3,-2,1,4,1
1501625555895500,-1,-1,2,0,5,-2,9,0
1501625555896000,5,0,2,1,2,0,6,1
1501625555896000,-4,2,-4,1,4,1,-2,-3
1501625555910243,-1,-3,0,-5,-16,-3,-10,-1
1501625555910243,2,3,0,-1,2,0,16,-1
1501625555918354,0,1,-2,-1,-1,-9,-14,-2
1501625555918354,-3,3,-2,-1,1,-1,8,-1
1501625555932380,0,1,-2,-2,-2,-7,-12,-3
1501625555932380,-2,-11,1,0,-4,-2,-4,-3
1501625555940386,2,2,-1,1,-1,-6,8,-1
1501625555940386,0,-1,-4,-3,-5,-2,-7,-1
1501625555955397,-2,1,0,3,7,0,-20,-3
1501625555955397,0,-1,1,-3,-2,-2,10,0
1501625555956350,-5,-2,-1,1,-4,6,-8,-1
1501625555956350,-1,2,-1,0,-8,6,5,-1
1501625555969408,-1,-7,-2,-6,-7,2,19,5
1501625555969408,3,3,4,2,10,0,17,1
1501625555978374,-3,2,-1,1,-1,-5,-10,-4
1501625555978374,-4,-4,-6,0,-3,-8,-6,-2
1501625555992424,1,4,3,2,11,7,6,0
1501625555992424,-5,-9,-3,-7,-7,-5,-12,-3
1501625556000428,4,-1,2,2,3,12,59,2
1501625556000428,2,5,-2,-3,-4,-1,-7,-2
1501625556015436,0,4,-1,-2,3,3,14,2
1501625556015436,-6,-11,-2,-3,-2,-13,-15,-4
1501625556016422,1,6,-4,-4,-12,-3,-17,0
1501625556016422,0,1,-4,1,2,2,-4,-2
1501625556029448,-1,4,-1,0,-6,-5,-1,-2
1501625556029448,-3,-7,-2,0,2,-3,3,1
1501625556038416,0,0,1,-3,1,-1,-15,-4
1501625556038416,2,-2,-4,3,0,3,-5,4
1501625556052465,0,3,2,1,2,-4,-11,-3
1501625556052465,-3,-4,2,-1,3,-3,-3,1
1501625556060431,0,-3,-2,-3,-9,-6,-17,-2
1501625556060431,-2,3,1,4,-2,4,38,2
1501625556075481,-1,-3,-1,2,3,5,4,0
1501625556075481,-1,-5,0,-4,-9,-4,-8,-4
1501625556076482,0,-4,0,-1,10,5,-5,-1
1501625556076482,-4,1,-4,-2,0,0,1,-2
1501625556089491,-2,1,4,4,-3,-5,-23,1
1501625556089491,-4,-6,-1,0,0,0,14,-1
1501625556097538,2,1,-2,-2,-1,1,1,1
1501625556097538,-3,3,0,1,-2,-1,0,1
1501625556112589,0,5,-2,-1,1,0,-5,0
1501625556112589,1,-2,2,3,5,1,-2,-1
1501625556120594,2,0,3,4,3,-4,3,-1
1501625556120594,-1,5,-3,-7,-2,2,-9,-2
1501625556135564,-2,-3,2,0,3,-4,8,-1
1501625556135564,1,1,1,-1,-1,0,0,5
1501625556136565,-3,-12,-3,-1,-1,2,-19,-5
1501625556136565,0,3,-1,3,-6,-1,6,0
1501625556149560,-2,-3,-4,-7,-12,-4,-15,-2
1501625556149560,1,-5,2,1,0,0,8,-1
1501625556157565,-3,0,-2,-1,2,-7,9,-3
1501625556157565,2,8,0,-1,1,6,-36,-2
1501625556172590,0,-1,-2,-1,-4,4,2,-3
1501625556172590,-1,-5,2,0,4,-3,-8,-1
1501625556180582,0,-5,0,2,5,-1,3,1
1501625556180582,3,7,-2,-1,-2,-3,-9,1
1501625556195607,-6,-5,-6,2,4,0,13,0
1501625556195607,6,6,3,-5,-4,3,-12,-1
1501625556195607,-4,-8,-2,0,-3,0,7,-2
1501625556195607,-4,-5,-7,-4,-1,-3,-10,-2
1501625556209616,0,4,0,-3,-4,0,-9,1
1501625556209616,-3,-5,-2,0,2,-3,9,0
1501625556217621,0,-3,-2,-4,-6,-1,6,0
1501625556217621,-3,-1,-3,-3,-2,0,-19,-3
