timestamp,emg1,emg2,emg3,emg4,emg5,emg6,emg7,emg8
1501623127343271,-2,-7,3,-4,-31,-10,-18,-4
1501623127343271,-3,2,0,-2,-9,-21,-14,-9
1501623127344276,2,7,1,5,11,58,9,2
1501623127344276,-6,-6,-4,1,1,-15,-7,-9
1501623127347332,1,9,1,-3,13,52,32,2
1501623127347332,-1,-7,3,0,-6,-37,-9,3
1501623127349317,-3,-5,-8,-6,-2,-1,-14,0
1501623127349317,-8,-7,-5,1,-14,-4,19,-3
1501623127355279,2,6,0,-2,13,24,-28,-10
1501623127355279,4,4,2,5,14,-9,-19,3
1501623127362317,-7,-7,-5,-12,-34,-27,-4,-6
1501623127362317,1,8,-5,-1,17,14,22,7
1501623127380297,3,8,6,-2,-15,-24,-33,3
1501623127380297,1,-2,-5,-2,0,-2,15,4
1501623127384330,-4,-6,-2,3,8,-10,-1,-5
1501623127384330,-5,-8,-3,-6,-10,16,3,-6
1501623127395308,4,1,1,8,10,-16,-17,6
1501623127395308,-1,1,1,-9,-11,18,18,2
1501623127407317,-1,0,1,5,10,-12,-31,-3
1501623127407317,6,5,5,3,-3,11,57,5
1501623127415353,-6,-6,-2,-1,9,5,-11,-2
1501623127415353,-7,-13,-8,-2,-7,21,13,0
1501623127462387,11,13,4,1,17,10,-5,5
1501623127462387,-2,3,3,2,8,0,8,-6
1501623127463356,-1,0,0,3,4,-16,2,-2
1501623127463356,-1,-3,0,3,-2,1,9,-4
1501623127463356,-7,-5,-2,8,7,13,-6,4
1501623127463356,-8,-13,-10,-7,-2,-9,13,-12
1501623127466400,6,8,6,2,5,4,-4,4
1501623127466400,-7,-3,-6,-3,-5,0,16,-1
1501623127474423,-1,-1,1,0,-6,-7,10,0
1501623127474423,3,4,4,-1,-3,4,6,4
1501623127481427,-4,-3,-2,0,-1,0,-30,-4
1501623127481427,2,5,1,2,12,-5,-6,-2
1501623127488403,-6,-11,-7,-16,-34,-15,-3,-3
1501623127488403,19,32,11,-1,-11,-18,-18,6
1501623127503389,-8,-3,-6,-3,1,-20,21,-8
1501623127503389,-2,-5,1,-1,-7,4,-6,5
1501623127512420,1,-4,-3,0,6,14,-9,-2
1501623127512420,-4,-3,7,-1,5,10,-11,2
1501623127518399,3,2,-1,0,5,11,3,-2
1501623127518399,3,10,1,0,-4,-7,9,4
1501623127534436,1,-1,1,4,4,-26,-13,-4
1501623127534436,-4,-12,-10,-11,-14,-3,-9,-5
1501623127541470,7,4,2,1,1,19,14,7
1501623127541470,-3,-6,-5,0,13,9,-30,-5
1501623127548584,-5,-11,-5,-1,-7,8,8,-3
1501623127548584,1,3,0,5,17,-6,-13,3
1501623127563596,-13,-13,-2,-2,-15,9,30,1
1501623127563596,8,7,-1,-2,-1,-3,12,-7
1501623127571601,-6,-6,-2,1,-1,-4,-11,-3
1501623127571601,8,10,1,1,-1,1,12,0
1501623127580549,-12,-15,-9,-7,-5,-14,-37,-11
1501623127580549,1,4,5,4,6,-1,-24,-4
1501623127594619,-5,1,-5,-5,-8,-3,14,-9
1501623127594619,-3,-6,0,3,6,13,-29,11
1501623127601564,3,2,0,4,4,6,6,3
1501623127601564,-5,-7,-3,-4,-6,2,18,-5
1501623127608629,1,7,5,1,1,-1,-11,0
1501623127608629,0,-3,-4,2,0,9,8,-3
1501623127623639,4,11,1,-6,-12,-11,-18,-6
1501623127623639,0,-7,-3,2,17,12,-20,5
1501623127631647,4,9,1,-4,-30,-30,-20,-4
1501623127631647,-12,-17,-9,1,8,4,2,-2
1501623127638589,-5,-3,-2,-4,-4,2,17,0
1501623127638589,5,8,2,2,4,14,11,-2
1501623127654662,-3,-2,-1,0,16,-14,-13,0
1501623127654662,1,0,4,2,-17,-7,5,2
1501623127661667,-7,-10,-5,-4,10,3,-7,-10
1501623127661667,-9,-13,-6,-13,-28,-15,-20,-3
1501623127668615,4,7,4,-3,0,11,19,1
1501623127668615,-1,-1,-1,-2,-8,-25,-23,-3
1501623127684173,2,2,2,10,21,5,1,0
1501623127684173,-5,-4,-3,-13,-19,-5,-5,4
1501623127692083,-2,-4,-7,3,9,27,63,-3
1501623127692083,-2,0,-1,-4,-4,-11,-6,-1
1501623127699111,-1,-9,-5,-3,-2,-12,-27,5
1501623127699111,2,6,3,1,-2,5,15,10
1501623127714091,1,1,0,4,6,-1,-3,-2
1501623127714091,-3,-3,-5,0,6,10,-17,-3
1501623127721065,-3,-1,1,-3,-10,9,50,3
1501623127721065,4,-4,2,0,-1,-26,-13,1
1501623127729235,-6,-6,0,-2,0,6,-33,-5
1501623127729235,4,9,1,1,3,12,45,7
1501623127744249,4,7,2,2,-1,1,-18,-6
1501623127744249,-3,3,1,3,4,-5,1,-1
1501623127752243,-2,-3,0,-1,7,-3,-15,5
1501623127752243,-6,-14,-6,-1,-4,7,33,0
1501623127766265,6,7,0,-2,-12,-6,4,3
1501623127766265,0,-1,-4,-6,-9,-6,19,0
1501623127774269,2,3,3,3,10,12,11,6
1501623127774269,2,1,1,0,1,-6,0,-4
1501623127781277,3,-4,-3,-4,-1,0,-19,12
1501623127781277,-7,-3,-3,2,0,18,5,-9
1501623127789266,0,0,-1,-1,-1,1,-8,-1
1501623127789266,-1,1,-3,-6,-4,-19,-17,-7
1501623127804235,-3,1,1,1,-1,-11,-20,-5
1501623127804235,5,6,2,1,-2,-6,7,-1
1501623127812300,-5,-8,-4,-3,3,7,21,3
1501623127812300,-3,-1,-1,-3,-9,7,-26,-2
1501623127826308,2,1,-2,3,13,-5,-4,1
1501623127826308,-2,-2,-1,2,-1,0,-12,-3
1501623127834285,1,3,0,-1,-1,-5,3,-2
1501623127834285,-6,-2,1,1,5,4,21,3
1501623127841320,-2,-6,-3,-1,-4,6,-2,-3
1501623127841320,9,14,5,8,8,9,28,10
1501623127849295,-2,-6,-6,-8,-6,12,-15,0
1501623127849295,0,4,3,1,-3,-2,-13,-10
1501623127864305,-3,-7,-2,-1,-1,-8,14,-1
1501623127864305,-4,-6,-3,-1,2,-1,-1,-3
1501623127872342,1,5,-1,-1,-9,-12,-3,-3
1501623127872342,0,-3,-1,-1,1,-11,7,4
1501623127886318,-4,-1,1,1,13,33,44,5
1501623127886318,-7,-9,-5,-1,-2,-21,-16,-5
1501623127894357,3,2,1,-6,2,-3,22,6
1501623127894357,0,7,-3,-4,-18,5,-17,0
1501623127901330,-3,-2,-4,-13,-13,-1,29,-1
1501623127901330,2,-1,2,6,6,1,-49,-2
1501623127908335,-3,-3,-3,-6,-7,5,12,1
1501623127908335,-1,-3,-2,3,11,2,-3,-2
1501623127924348,2,-2,1,-1,-15,1,-1,0
1501623127924348,1,8,1,-1,6,0,18,-7
1501623127932382,-1,-1,0,5,6,-17,-38,1
1501623127932382,0,-8,-3,-9,-16,0,11,6
1501623127946341,-3,-3,0,6,13,-14,-33,-2
1501623127946341,0,-1,0,0,-7,12,32,-1
1501623127954395,-1,-2,0,-6,-22,-14,-6,-10
1501623127954395,3,5,2,4,10,5,13,2
1501623127961405,2,4,1,2,4,-1,-43,-3
1501623127961405,-1,-3,-3,-4,-4,-5,5,2
1501623127969349,0,3,2,8,12,11,3,-2
1501623127969349,-8,-15,-8,-2,3,-14,-9,-2
1501623127983530,8,13,3,-4,-23,-6,3,1
1501623127983530,-5,-13,-6,-5,9,0,-21,-1
1501623127991504,1,3,0,-3,-4,7,-7,-1
1501623127991504,8,11,5,11,30,14,1,1
1501623128006546,4,8,-3,-4,-19,28,25,9
1501623128006546,2,2,7,3,-5,-23,-24,4
1501623128014658,-10,-16,-5,2,0,2,11,-3
1501623128014658,-6,-7,-2,0,4,5,6,-3
1501623128021600,-5,-1,3,0,0,-13,-10,-4
1501623128021600,3,0,-5,-7,-1,19,27,7
1501623128028663,0,-3,-1,1,11,-3,-8,-1
1501623128028663,-1,1,1,0,-7,-6,-4,-3
1501623128043789,-2,-4,-5,-7,-19,-22,-10,-3
1501623128043789,-7,-4,-1,2,0,-17,-39,-3
1501623128051734,2,3,-1,-1,1,-4,26,0
1501623128051734,-7,-10,-6,-3,0,18,-1,-3
1501623128066776,0,7,3,3,10,-16,-32,-8
1501623128066776,-1,-1,-4,-2,-2,-2,16,-7
1501623128074810,4,15,9,2,7,-2,-28,-3
1501623128074810,0,-2,1,1,-22,-13,-38,-1
1501623128081786,-13,-11,-4,-3,11,1,27,-11
1501623128081786,1,0,-2,-2,-7,12,12,-6
1501623128096825,3,2,1,0,-3,-6,-16,1
1501623128096825,-6,-3,-3,-2,5,1,31,-3
1501623128103778,2,0,2,7,11,7,-22,5
1501623128103778,-3,-1,-7,-14,-10,-10,-14,-3
1501623128111839,-4,-6,-3,0,1,5,17,5
1501623128111839,-2,3,1,-5,-16,0,-4,-2
1501623128126818,4,-5,0,2,6,-8,19,3
1501623128126818,4,1,4,7,8,4,-9,4
1501623128134905,-4,-6,-3,2,3,-6,-8,0
1501623128134905,-5,-4,-2,-9,-23,-7,-11,-2
1501623128140966,5,4,3,3,9,4,-2,-1
1501623128140966,-3,-1,-1,-3,-8,-5,10,-2
1501623128156952,0,-2,-4,-4,-5,-10,-9,-6
1501623128156952,2,3,0,0,9,-4,-17,-1
1501623128163987,-5,-8,-4,-1,1,-5,7,-3
1501623128163987,-3,-1,-3,-5,2,11,-6,-1
1501623128171963,-1,4,0,-4,-17,-7,-11,0
1501623128171963,-8,-5,-4,-4,0,-25,-15,-6
1501623128185969,7,1,-1,3,-2,1,-10,3
1501623128185969,-2,1,1,4,13,-1,0,-2
1501623128193976,3,9,4,0,-9,10,21,2
1501623128193976,5,4,2,6,17,13,27,6
1501623128200980,1,4,2,5,-1,-16,-6,-3
1501623128200980,-1,1,-5,-3,-3,16,-17,0
1501623128216992,-1,-4,-4,-3,-8,-8,-2,0
1501623128216992,4,-2,3,3,6,2,-3,-2
1501623128223968,-7,-7,-3,0,-3,-2,10,-3
1501623128223968,1,1,1,8,16,-6,-20,0
1501623128231032,-3,-3,-7,-10,-27,7,-14,4
1501623128231032,-1,-3,-1,-2,2,5,0,-5
1501623128246044,-2,-2,1,0,8,6,0,-3
1501623128246044,-6,-7,-1,-5,-21,-16,-3,5
1501623128254993,-1,-5,-4,4,18,-15,-26,-4
1501623128254993,0,2,-1,-3,-7,2,8,0
1501623128261052,1,-1,-2,-4,0,19,2,0
1501623128261052,-2,-3,-6,-8,-26,-13,45,-4
1501623128277005,-1,5,1,3,13,7,8,-1
1501623128277005,-2,0,-5,-6,-12,1,-10,1
1501623128284042,-4,5,5,2,7,3,-10,0
1501623128284042,4,6,1,5,4,5,12,-5
1501623128291078,1,-1,0,-4,-7,6,41,1
1501623128291078,-5,-2,0,6,6,-7,-42,-5
1501623128306086,11,8,3,-2,-6,-1,19,4
1501623128306086,-3,-4,-1,-2,8,0,-18,-2
1501623128315063,-1,-2,-2,-1,-5,11,12,-1
1501623128315063,-2,1,2,8,16,6,-3,-3
1501623128321036,-7,-8,-6,-13,-29,-24,3,0
1501623128321036,-5,-8,-3,-2,2,5,-8,-3
1501623128337076,1,4,-2,-1,11,-1,30,-1
1501623128337076,4,0,0,1,-1,16,7,2
1501623128344114,1,0,-2,0,-3,-6,1,3
1501623128344114,1,2,-1,-1,5,-6,18,5
1501623128351089,-4,-2,2,0,-1,-11,-19,-3
1501623128351089,-4,-9,-5,-4,1,-2,5,-2
1501623128366128,4,12,-1,-11,-15,7,8,2
1501623128366128,-8,-9,-4,1,12,0,-11,-6
1501623128374076,-1,-7,4,6,-4,-2,21,0
1501623128374076,3,-1,-3,-2,6,-3,5,-2
1501623128381189,-4,1,1,5,-1,-1,-1,0
1501623128381189,1,-1,-2,-5,-1,2,8,-1
1501623128397218,-2,-3,-2,-4,-1,7,-3,0
1501623128397218,2,-1,0,-1,-7,-7,7,0
1501623128404191,-9,-8,-6,0,2,3,5,-4
1501623128404191,5,3,3,6,9,4,22,2
1501623128411228,-3,-1,-1,-3,2,3,-16,-5
1501623128411228,4,5,2,-3,-15,-8,-9,0
1501623128426238,-2,-5,-2,-5,-4,-4,-19,-3
1501623128426238,-3,3,3,1,-1,4,-9,-4
1501623128434191,3,-2,-4,2,2,-3,4,5
1501623128434191,1,8,-1,-2,1,0,11,6
1501623128449200,1,0,1,2,5,10,-17,-3
1501623128449200,2,-2,3,-2,-1,-23,3,1
1501623128457261,-3,-9,-2,-2,-1,-9,-39,-4
1501623128457261,-1,-2,0,-5,-8,6,24,4
1501623128472214,3,3,1,2,12,9,-10,-4
1501623128472214,-3,-1,-1,2,-6,6,6,1
1501623128473212,-5,-2,-1,6,18,3,17,-5
1501623128473212,-2,-3,1,-6,-20,-7,2,1
1501623128486248,0,0,0,1,11,6,10,-1
1501623128486248,3,6,2,0,-12,0,-10,1
1501623128494266,0,4,-1,2,3,4,-4,1
1501623128494266,-1,-1,-2,3,3,-2,-7,-3
1501623128509237,-10,-13,-7,-9,-22,-18,-20,-3
1501623128509237,5,11,4,0,9,2,-24,-2
1501623128517248,1,2,-1,-2,-5,10,22,3
1501623128517248,-3,3,-5,-2,2,4,-12,-3
1501623128532315,-5,-7,-5,-1,-3,3,-15,-3
1501623128532315,-4,-8,0,1,0,-8,14,-6
1501623128532315,8,10,5,2,1,0,-23,2
1501623128532315,-1,-6,-5,-2,-1,-8,-9,4
1501623128546323,1,-5,-1,3,6,3,29,1
1501623128546323,-7,-13,-6,-1,3,-6,-8,-4
1501623128562316,-4,-2,-7,-12,-21,-4,-2,-1
1501623128562316,0,1,1,3,-2,5,23,3
1501623128568282,1,-5,-2,-6,-10,-19,1,6
1501623128568282,3,6,5,6,-2,11,8,3
1501623128577347,-6,-11,-7,-1,6,-3,-6,-7
1501623128577347,-1,1,-1,-5,0,3,17,-3
1501623128592441,-8,-4,1,1,-3,3,-17,-3
1501623128592441,12,8,-1,-4,-2,10,17,1
1501623128592441,2,1,2,0,-7,0,-4,0
1501623128592441,-2,-4,-2,2,6,10,30,0
1501623128606479,-4,0,-1,1,4,-6,2,-1
1501623128606479,-3,1,-3,-2,-11,-7,0,-4
1501623128614483,2,0,-2,-7,-9,-10,-8,0
1501623128614483,-2,-2,0,7,16,4,-21,-7
1501623128628496,3,3,0,-4,-5,-2,-3,1
1501623128628496,-4,-4,-2,1,3,9,7,-3
1501623128637468,-6,-3,0,1,2,-10,6,0
1501623128637468,2,5,3,-1,-12,-9,-27,-1
1501623128652481,-4,-6,-6,-10,5,3,-3,-1
1501623128652481,2,1,2,0,-6,2,-21,2
1501623128652481,-4,-1,3,7,13,-3,10,0
1501623128652481,3,4,0,-4,-7,-10,32,1
1501623128666523,-2,-4,-3,5,1,4,-3,-5
1501623128666523,-5,0,-4,-6,3,2,-11,3
1501623128674530,-1,-5,-1,5,5,-3,-33,-3
1501623128674530,-2,-2,-2,3,-3,0,-2,-2
1501623128688537,2,2,0,-3,-2,-2,-3,2
1501623128688537,-2,-2,-1,-2,1,-1,-4,1
1501623128697512,1,-1,2,1,-3,6,23,2
1501623128697512,-2,-2,-3,-3,9,3,-15,-4
1501623128712524,9,9,3,2,-5,-2,-6,4
1501623128712524,-5,-9,-7,-1,-3,-11,-6,-1
1501623128712524,5,3,2,-6,-17,-4,-28,-3
1501623128712524,-3,-3,-1,-3,1,-5,26,-1
1501623128726531,-1,2,4,9,11,5,11,-4
1501623128726531,-1,-4,-3,-14,-18,-6,-8,-3
1501623128734537,-5,-10,-8,-4,1,5,4,-5
1501623128734537,3,7,1,5,4,4,2,-3
1501623128748546,0,7,0,-1,-4,-12,-8,-1
1501623128748546,1,-3,0,8,3,12,3,1
1501623128756552,-4,2,0,-8,4,0,-2,-5
1501623128756552,-2,-9,-3,-4,0,8,1,1
1501623128771563,1,-3,-2,0,-12,-6,-31,0
1501623128771563,-8,-5,1,-2,-1,-2,-17,-3
1501623128772543,5,-2,-3,0,0,-5,9,11
1501623128772543,2,5,6,4,9,0,-38,-7
1501623128786545,1,3,-2,-5,-6,-2,-1,7
1501623128786545,0,2,-2,0,-6,2,14,5
1501623128794579,-1,0,0,1,6,5,-10,2
1501623128794579,-3,-8,-6,2,-1,-15,-9,-3
1501623128808564,2,2,0,-4,7,11,3,-9
1501623128808564,-1,0,0,4,-1,-6,-11,-4
1501623128816587,1,5,1,-1,-1,7,22,0
1501623128816587,-1,2,-1,-3,-5,-7,7,3
1501623128831605,-6,-11,-4,-1,3,11,0,-3
1501623128831605,1,5,-2,-1,2,14,25,-2
1501623128832578,-5,-2,1,2,-3,-22,-34,-13
1501623128832578,1,-4,-4,-5,-13,-1,-7,0
1501623128846588,-8,-19,-7,0,-1,-1,4,-6
1501623128846588,8,10,7,1,17,9,14,5
1501623128854593,-1,1,0,-2,-8,-2,-1,0
1501623128854593,-8,-7,-3,2,2,-7,2,-1
1501623128868604,4,7,4,2,3,-2,17,0
1501623128868604,-5,-7,-3,-1,-4,-7,-10,-3
1501623128876608,-1,-3,0,1,3,5,7,1
1501623128876608,-3,-3,-2,-2,4,9,11,0
1501623128891619,4,-1,-2,1,3,-10,16,2
1501623128891619,0,-2,-2,-3,-5,-2,11,1
1501623128892620,0,2,1,2,-2,-9,-28,-5
1501623128892620,2,-1,-3,-5,-5,2,-8,-3
1501623128906637,-5,-2,-3,2,2,4,30,-1
1501623128906637,-3,-4,-2,-1,-1,-5,-56,-3
1501623128914635,0,3,-1,4,6,6,26,-1
1501623128914635,1,-7,-2,-11,-23,-7,-6,3
1501623128928675,4,7,3,-1,2,-4,13,2
1501623128928675,-3,-3,-2,-1,2,-11,-8,-6
1501623128936654,-5,5,-2,-1,-6,4,-5,1
1501623128936654,4,4,5,8,14,2,1,1
1501623128951690,-1,-2,-2,-4,-14,-1,-20,-3
1501623128951690,1,5,2,-1,7,0,29,3
1501623128952662,-2,-7,-6,-5,-12,-3,-10,-5
1501623128952662,0,-1,-2,-3,0,-2,18,-4
1501623128967673,-4,-6,1,-1,-4,-3,-25,-1
1501623128967673,-10,-4,0,-3,-8,-1,-8,-7
1501623128974740,12,5,0,1,4,1,8,5
1501623128974740,-4,1,-1,-1,1,-4,2,-4
1501623128988747,1,2,2,-4,-2,5,-5,1
1501623128988747,-2,-7,-3,-1,7,7,-6,-6
1501623128996752,-1,-2,0,1,1,5,37,5
1501623128996752,0,1,-1,1,-3,2,-25,-1
1501623129011763,-1,1,-3,1,9,-12,-7,-6
1501623129011763,0,-1,-1,-3,-15,-8,15,3
1501623129012735,1,0,0,2,9,18,14,3
1501623129012735,-4,-2,-2,0,-4,6,1,-2
1501623129026744,1,3,1,4,7,-9,2,6
1501623129026744,4,3,-4,-10,-14,-3,9,0
1501623129034724,-8,-7,-1,-3,-4,-11,-16,-9
1501623129034724,-4,1,-1,-1,-3,9,22,-1
1501623129048789,3,-3,-2,0,9,6,-3,-1
1501623129048789,-2,-2,4,7,-18,-18,6,-3
1501623129056797,2,1,-4,-2,11,1,-7,11
1501623129056797,-2,-1,-2,-1,-1,-5,-32,-4
1501623129071780,-4,-2,-2,-2,-4,4,8,-5
1501623129071780,-3,-4,-1,2,10,3,3,2
1501623129079813,-2,-9,-6,-4,-9,-8,-7,-5
1501623129079813,11,13,5,-1,0,-6,-7,2
1501623129086779,2,8,2,1,-5,-4,-3,6
1501623129086779,-1,-1,-3,1,7,9,17,-4
1501623129094822,1,3,2,-6,-17,-10,-33,-5
1501623129094822,-3,-2,0,2,6,-16,-19,1
1501623129108944,-7,-9,-3,0,-2,3,24,-5
1501623129108944,3,7,0,-3,4,1,-17,0
1501623129116949,-1,-2,0,1,2,12,44,4
1501623129116949,4,-1,-2,1,-2,-4,0,0
1501623129130960,-5,-9,-4,-2,-1,6,8,-2
1501623129130960,3,4,-1,4,11,-2,1,7
1501623129139936,-5,-5,-2,-10,-22,-8,-23,-2
1501623129139936,-5,-2,-1,1,-4,3,17,0
1501623129145972,0,-2,2,3,6,5,-5,-4
1501623129145972,-2,0,-5,-2,-4,-5,10,0
1501623129154999,1,4,5,5,15,12,3,-2
1501623129154999,0,-2,-1,-1,-3,1,12,-2
1501623129169012,3,6,0,-5,-6,-1,-18,0
1501623129169012,-1,-2,-1,2,6,18,-9,-1
1501623129177076,-4,-7,-2,5,-1,-24,-3,-5
1501623129177076,-2,-1,-1,-5,6,5,13,1
1501623129191054,-1,-10,-3,0,-9,3,-5,0
1501623129191054,7,17,6,-3,-4,-7,-7,-3
1501623129199060,-4,3,-3,-3,-4,-8,-17,-5
1501623129199060,1,-2,1,2,8,-3,18,9
1501623129206097,-6,-3,-2,0,-2,-8,-8,-2
1501623129206097,-3,-10,-4,3,12,9,1,1
1501623129215072,1,-1,2,-3,-13,-8,-15,-3
1501623129215072,-2,6,-1,-2,-2,3,3,-6
1501623129229084,0,5,-4,-6,2,3,11,7
1501623129229084,0,-3,2,2,-1,-9,-1,-1
1501623129237086,-4,-3,0,7,9,9,18,0
1501623129237086,-2,-10,-5,-7,4,7,-13,-2
1501623129251110,1,6,0,-1,-5,-14,-23,-3
1501623129251110,-3,-7,-5,-4,-10,8,15,-4
1501623129259133,2,3,-1,3,7,-1,-5,-1
1501623129259133,-7,-12,-7,-8,-13,1,-8,-5
1501623129275143,6,12,5,5,2,-3,-9,-3
1501623129275143,-3,-2,-3,-5,-4,-8,-6,-2
1501623129276115,-1,-2,-5,0,8,10,19,2
1501623129276115,2,2,3,1,-7,-11,-18,0
1501623129289128,-3,-6,-1,0,-1,-7,-1,-3
1501623129289128,-2,-5,-2,-6,-17,-7,-1,-1
1501623129297160,3,6,2,-6,-10,-2,-20,2
1501623129297160,-3,-3,-3,7,14,8,-8,-9
1501623129311172,-7,-11,-4,-1,0,4,25,1
1501623129311172,11,9,3,1,-4,-16,-27,4
1501623129319226,-6,-6,-4,-1,4,2,-3,-7
1501623129319226,0,-3,-1,-1,-9,-8,1,4
1501623129335238,-1,-2,0,-4,3,17,37,0
1501623129335238,-2,-2,0,2,4,5,15,0
1501623129336268,2,2,1,0,5,-7,-3,-1
1501623129336268,1,2,0,0,-1,-7,19,3
1501623129349253,-4,-1,-2,0,2,4,-2,-4
1501623129349253,1,-3,-2,-2,-5,-5,-29,-6
1501623129357315,0,-5,-4,3,2,0,17,0
1501623129357315,0,4,2,-5,-5,7,-7,-1
1501623129371292,-2,-7,-7,-4,-7,-2,7,2
1501623129371292,-7,-4,0,4,8,-5,-12,-5
1501623129379331,-2,-6,0,-2,-2,-1,15,-1
1501623129379331,2,5,0,4,6,-1,-3,-2
1501623129395284,3,1,1,-1,-5,-1,-15,-1
1501623129395284,-4,-2,-3,-8,-4,3,10,-1
1501623129396282,3,4,0,2,-2,-1,-2,-2
1501623129396282,2,5,2,2,1,-4,3,4
1501623129409324,1,1,2,1,10,3,-4,1
1501623129409324,-3,0,-3,8,13,9,32,3
1501623129417308,-3,-3,-5,-18,-32,-15,-23,-8
1501623129417308,2,0,1,-1,4,7,11,2
1501623129431311,1,6,2,1,-5,-8,-11,-4
1501623129431311,-4,-6,-3,3,10,5,19,-2
1501623129439485,-2,7,1,4,12,-5,-10,5
1501623129439485,-1,2,-3,-13,-29,10,0,2
1501623129454495,-3,-8,-2,5,8,1,-12,-7
1501623129454495,-1,-3,0,-5,-8,-15,-22,7
1501623129455464,-1,1,0,4,7,2,-45,0
1501623129455464,1,1,1,-1,-5,4,28,0
1501623129468474,-4,-1,-3,-3,1,-1,-9,-5
1501623129468474,-2,-3,0,0,-5,2,0,-5
1501623129477487,-2,-2,-2,0,7,9,21,0
1501623129477487,-3,-4,-4,0,7,-15,-19,-2
1501623129491465,-1,1,-1,-5,-10,-5,-13,0
1501623129491465,-2,-3,-1,0,3,-3,5,-4
1501623129499638,-4,-5,-1,-3,-5,6,23,-1
1501623129499638,-3,4,3,3,4,7,13,-5
1501623129514650,-3,-5,-2,1,-1,-16,-33,-1
1501623129514650,2,2,1,-10,-1,7,-7,-2
1501623129515619,-3,-8,-4,3,0,3,-8,2
1501623129515619,0,-6,-6,-4,-5,-3,2,0
1501623129528661,1,1,2,5,12,-1,11,8
1501623129528661,-3,-4,-1,0,-4,4,-22,-2
1501623129536637,4,0,3,-1,-3,-2,18,3
1501623129536637,-1,-6,-2,4,11,-3,-9,-3
1501623129551644,0,4,-3,-10,-20,5,3,-3
1501623129551644,0,3,0,4,8,-10,11,3
1501623129559650,-4,-4,-5,-8,-19,-1,11,-1
1501623129559650,-1,7,3,1,4,-11,1,-2
1501623129574660,-2,-3,-1,-3,-4,7,5,-2
1501623129574660,1,-2,0,-1,-3,5,3,4
1501623129575660,4,2,2,5,15,2,-2,0
1501623129575660,-3,-1,-2,-6,-20,-8,-5,-1
1501623129588680,-4,-10,-6,-2,13,10,3,0
1501623129588680,1,7,2,-4,-14,-5,16,1
1501623129596710,4,5,-1,1,-3,-1,-14,-1
1501623129596710,-1,0,4,5,5,-4,-12,-4
1501623129611804,-2,1,-2,0,0,1,21,-1
1501623129611804,-2,-4,-2,-1,1,-2,-14,-4
1501623129619803,-4,-6,-4,-1,7,-17,-54,-5
1501623129619803,-1,-8,-3,-4,-7,1,0,1
1501623129634814,4,10,3,4,0,-4,-7,0
1501623129634814,-6,-8,-3,-1,0,-10,-1,-5
1501623129634814,-1,5,1,-6,-10,6,22,-2
1501623129634814,-5,-5,-4,0,9,5,-1,-2
1501623129648855,-1,-2,-2,-2,-4,-3,-9,-2
1501623129648855,7,4,5,4,2,-3,-24,1
1501623129656862,-13,-14,-11,-7,5,-6,-11,-7
1501623129656862,3,3,-1,-3,-12,5,15,4
1501623129671845,3,8,5,2,-3,-2,22,5
1501623129671845,-1,2,-1,-1,-1,6,17,0
1501623129679883,-4,-2,-1,1,1,0,-5,-2
1501623129679883,1,1,1,3,10,-16,-31,3
1501623129694889,2,-2,2,3,7,15,-1,1
1501623129694889,-2,-3,-4,-2,1,-1,-3,-4
1501623129694889,5,-2,3,3,-8,0,6,3
1501623129694889,-2,-6,-4,-3,5,-3,0,-1
1501623129708899,4,3,2,5,8,-1,-1,1
1501623129708899,-4,-5,-1,-5,-21,-1,7,-7
1501623129724851,1,6,0,2,7,5,13,-2
1501623129724851,-2,0,-7,-4,0,0,15,-1
1501623129731855,-9,-14,-3,-4,-11,-15,-3,1
1501623129731855,8,18,6,2,5,-2,-4,-3
1501623129739920,-1,0,-3,-3,0,-8,-9,5
1501623129739920,-3,-3,1,3,-8,11,16,-1
1501623129754900,-2,0,-1,-1,13,6,-4,-2
1501623129754900,-6,-8,-6,-1,-7,-3,8,0
1501623129754900,2,3,1,-1,6,5,0,-3
1501623129754900,-3,-2,-5,-3,-10,-18,-34,-3
1501623129768885,-3,-6,-1,-3,-3,9,23,4
1501623129768885,0,-5,0,-1,-4,8,-31,-2
1501623129776947,7,13,7,1,-7,-16,14,-2
1501623129776947,0,3,2,1,12,-3,0,3
1501623129790957,0,-4,-4,2,-6,-5,-14,-6
1501623129790957,-3,-3,-4,-3,-3,-3,14,3
1501623129799958,-6,-8,-3,-2,0,7,-8,-1
1501623129799958,-2,-3,1,-1,-3,5,25,2
1501623129814945,1,3,-4,-1,-5,-15,-6,0
1501623129814945,-4,-4,-2,-3,8,1,12,1
1501623129814945,-1,-2,-2,-2,-3,-6,-15,4
1501623129814945,-3,-4,-3,-3,-4,-3,-40,-6
1501623129828982,-2,-5,-1,0,5,-8,-15,-5
1501623129828982,1,4,-2,-7,-19,-8,-16,-2
1501623129836954,-1,-4,-3,-1,-3,-9,9,-1
1501623129836954,0,0,-1,0,2,5,14,-2
1501623129850939,0,2,0,-4,-2,2,-12,-1
1501623129850939,0,0,0,8,14,0,0,8
1501623129859983,-3,-2,-2,-5,-10,1,3,-3
1501623129859983,-1,-3,-1,-13,-18,7,12,-3
1501623129874988,2,1,0,0,1,-8,-19,-4
1501623129874988,-1,-4,2,6,5,8,35,3
1501623129874988,0,5,3,4,0,-1,-20,-1
1501623129874988,4,4,0,1,13,5,-9,0
1501623129889025,-1,-2,-3,-3,1,9,15,1
1501623129889025,-2,-5,-1,-6,-7,-14,-18,-5
1501623129897031,5,-2,1,3,3,8,-7,0
1501623129897031,-1,-1,0,1,3,-6,-7,-3
1501623129911041,0,1,0,-4,-10,0,19,1
1501623129911041,-1,1,0,0,2,-1,-8,-4
1501623129919991,-4,-8,-2,-3,-2,1,1,4
1501623129919991,1,4,-2,1,-12,-7,15,0
1501623129934998,1,1,3,-1,7,9,21,4
1501623129934998,1,-8,-4,1,-2,-6,-38,-4
1501623129934998,1,4,0,-3,-2,2,11,-3
1501623129934998,-4,-6,-5,2,4,-2,-2,-3
1501623129949067,-3,-4,-4,-3,-5,2,21,1
1501623129949067,3,7,2,1,-1,6,-6,1
1501623129957042,-3,-1,1,2,17,5,5,4
1501623129957042,-6,-7,-4,-4,-7,-2,-45,-9
1501623129971082,1,3,0,-5,-16,-6,-36,-7
1501623129971082,-3,-9,-2,-2,3,-13,7,1
1501623129980060,0,6,-1,3,7,3,23,-1
1501623129980060,-1,0,0,7,3,4,23,4
1501623129994101,-2,-1,-4,-11,-3,0,13,-1
1501623129994101,2,0,-2,-1,-1,9,34,5
1501623130002050,0,-2,-2,-5,-9,-7,-33,-1
1501623130002050,0,2,6,7,9,-2,5,-2
1501623130009109,-1,-1,-2,-1,0,-13,-2,-2
1501623130009109,-1,-1,-1,-3,-12,-3,1,1
1501623130017085,-1,-5,-1,-1,-1,0,7,-5
1501623130017085,-1,-5,-5,-6,-8,3,5,7
1501623130031127,0,5,-2,5,7,-2,-1,0
1501623130031127,-4,-3,-3,-6,-2,6,16,-3
1501623130040073,0,5,3,2,-2,-7,18,2
1501623130040073,-3,-11,-2,2,5,-1,-23,-6
1501623130054141,1,3,6,0,-3,-5,7,-1
1501623130054141,-3,-4,-5,1,8,7,8,1
1501623130062149,3,6,2,-5,-5,-6,4,-2
1501623130062149,-4,-1,-3,0,0,2,6,-2
1501623130078151,2,-4,-1,1,-3,-4,0,1
1501623130078151,1,3,2,0,3,-2,-14,-1
1501623130078151,-4,-8,-4,-3,-2,7,27,3
1501623130078151,5,12,3,-2,9,-3,-18,1
1501623130091167,-3,-2,-3,-6,-21,-8,-17,-5
1501623130091167,-3,-5,-3,1,9,-5,-23,-6
1501623130099173,6,5,0,2,-1,17,37,4
1501623130099173,-6,-12,-3,-3,-4,-13,-10,-5
1501623130114183,5,4,1,3,4,4,9,4
1501623130114183,2,3,1,1,0,1,-11,0
1501623130122135,-3,-3,-2,-6,-5,-23,-12,0
1501623130122135,-1,0,2,1,-4,5,8,0
1501623130129186,-5,-2,-1,5,7,-3,-9,-1
1501623130129186,2,4,0,2,9,3,-8,2
1501623130137169,-3,1,-2,-1,-2,-1,-18,-4
1501623130137169,-1,-3,-4,-5,-10,1,-9,-1
1501623130151151,-4,1,0,0,6,4,9,0
1501623130151151,2,3,3,4,-2,1,5,-5
1501623130159186,-3,-7,-3,0,1,-6,-26,-2
1501623130159186,2,-2,-2,-2,-1,6,15,0
1501623130174167,-3,-2,-1,0,-1,0,4,-4
1501623130174167,-4,-2,0,-4,-6,-9,-28,-1
1501623130182173,0,0,0,1,1,-3,8,-10
1501623130182173,1,4,1,-3,-11,0,-1,-1
1501623130197212,-3,-7,-5,-4,-3,-1,-13,-1
1501623130197212,-8,-10,-5,-3,1,8,20,-4
1501623130198212,5,6,2,5,-1,-1,-9,5
1501623130198212,-7,-6,-4,-1,20,8,7,0
1501623130211222,5,-3,0,-4,-17,-2,-5,-2
1501623130211222,1,6,-1,0,-6,-3,8,1
1501623130220228,-3,-4,-3,-4,9,3,0,-5
1501623130220228,0,-1,0,-3,-3,-8,0,0
1501623130234213,-3,-6,1,0,-4,2,-11,-1
1501623130234213,4,2,1,0,5,4,13,3
1501623130243223,-8,-3,-3,-2,-13,-4,-16,-3
1501623130243223,4,5,4,7,9,-2,15,0
1501623130257226,1,2,0,-5,1,1,-8,3
1501623130257226,-7,-14,-6,-2,-4,-4,6,-1
1501623130259227,2,8,2,-5,-12,4,-1,-4
1501623130259227,5,4,1,4,6,6,21,3
1501623130271264,2,1,0,1,-8,-1,-11,-1
1501623130271264,-5,-3,0,-4,-2,-8,-18,-10
1501623130280248,2,-1,-8,-4,-4,0,-9,3
1501623130280248,-3,-3,0,-1,-3,-4,-32,-10
1501623130294280,-4,1,-2,-1,3,-2,5,-3
1501623130294280,2,6,2,4,4,-1,-7,1
1501623130303258,-4,-5,-2,0,2,-6,2,-5
1501623130303258,0,0,-1,0,-10,-5,-8,-1
1501623130317298,1,1,-5,-4,6,13,33,1
1501623130317298,-1,-3,-2,-4,-10,-10,-2,-6
1501623130324273,-2,-5,2,4,1,0,-3,0
1501623130324273,-1,-1,-4,-9,2,1,8,2
1501623130331310,-4,-8,-1,6,5,-3,3,1
1501623130331310,-3,-1,-3,-2,0,7,4,2
1501623130340292,9,16,5,-3,-6,0,27,8
1501623130340292,0,5,1,3,1,-5,-15,0
1501623130354294,-2,6,0,-1,2,-9,-11,0
1501623130354294,-2,-9,-2,-1,0,-1,10,3
1501623130363301,-2,-6,-3,0,2,12,-3,-2
1501623130363301,0,-1,0,1,0,-12,-8,-3
1501623130376317,-1,-4,-2,-4,-7,-8,10,-2
1501623130376317,3,3,0,-2,-1,5,14,4
1501623130385323,1,-1,1,0,-2,-2,-14,-1
1501623130385323,0,-1,0,0,3,-4,-7,4
1501623130391328,-4,-2,-3,0,5,0,-21,-5
1501623130391328,3,4,1,1,-9,-9,0,1
1501623130400327,-3,-6,-2,5,9,3,3,-1
1501623130400327,2,3,1,-5,-15,1,18,-2
1501623130414337,-4,-9,-2,0,4,5,4,-3
1501623130414337,5,7,-1,-2,3,5,-5,3
1501623130423343,-7,-10,-4,3,0,-5,7,-3
1501623130423343,1,1,-3,-7,-8,3,-23,-3
1501623130436357,-1,3,-2,3,-8,-8,-17,-3
1501623130436357,0,2,0,-4,0,7,5,-5
1501623130445387,-1,4,0,3,13,2,1,0
1501623130445387,-5,-9,-5,-2,-6,-2,-9,-1
1501623130451391,-1,2,2,3,6,-3,-10,0
1501623130451391,-2,-8,-2,0,-1,0,-4,-4
1501623130460377,-3,-8,0,0,-9,-8,-19,-8
1501623130460377,4,5,-2,-5,11,12,21,2
1501623130474379,5,7,2,-1,-10,2,-1,3
1501623130474379,-4,-4,-4,-1,-1,-5,2,1
1501623130482385,-5,-6,-2,-1,-5,3,35,-2
1501623130482385,-1,-4,-2,0,1,0,17,1
1501623130496395,-3,-5,1,0,-2,-2,-20,-1
1501623130496395,6,9,0,-3,3,1,-11,-3
