timestamp,emg1,emg2,emg3,emg4,emg5,emg6,emg7,emg8
1501624326372751,0,-3,7,0,-3,-23,-10,-1
1501624326372751,-3,-12,-13,-1,-5,-25,-19,-3
1501624326373752,-2,2,3,1,3,-17,-6,-5
1501624326373752,-7,-4,0,-2,-5,4,16,1
1501624326374753,9,6,3,-3,1,-7,-2,4
1501624326374753,1,1,-7,1,5,16,-10,0
1501624326374753,1,1,13,1,-11,-5,14,3
1501624326374753,0,3,-12,-5,4,-2,7,-6
1501624326385814,-3,2,12,3,4,46,0,-6
1501624326385814,-4,-3,-2,-6,-19,-25,30,1
1501624326395768,15,-4,-14,2,2,-25,-13,5
1501624326395768,0,1,-5,1,-1,-15,-29,-2
1501624326402789,-6,-6,0,-6,-6,40,5,-3
1501624326402789,8,2,12,9,-2,-3,-7,7
1501624326415919,-4,6,5,4,7,-1,8,2
1501624326415919,-5,-3,-13,-8,-9,-20,-21,-4
1501624326426878,0,-4,-7,-2,0,8,11,0
1501624326426878,-1,-1,12,10,10,27,-12,1
1501624326430928,-2,1,-3,-7,-8,-15,-17,-7
1501624326430928,3,-1,7,0,-6,-23,-15,2
1501624326445897,-3,-2,-5,5,-4,-22,11,6
1501624326445897,0,5,2,-9,-8,2,-1,-3
1501624326454934,-2,-1,-5,-1,3,6,-3,-1
1501624326454934,0,3,10,11,18,86,28,2
1501624326493918,-1,-5,-3,-12,-9,32,9,-2
1501624326493918,0,-6,-1,1,-8,-31,-9,-1
1501624326494930,-3,0,-10,-7,0,47,17,-2
1501624326494930,0,-2,2,6,3,-54,-5,3
1501624326495930,-1,2,1,1,0,-4,-22,-4
1501624326495930,-1,-2,-2,-4,-4,5,-19,-2
1501624326498979,-3,-1,3,1,8,16,-5,-5
1501624326498979,-5,-5,-2,-6,-19,30,-3,-5
1501624326505982,10,1,0,6,13,17,4,5
1501624326505982,1,3,0,0,-1,-27,5,-4
1501624326512987,-2,-4,6,0,-6,-17,-12,4
1501624326512987,0,1,-1,-2,4,14,12,0
1501624326521955,-5,0,-6,-3,3,18,11,-5
1501624326521955,1,6,18,3,-10,1,6,5
1501624326536005,1,-14,-13,-2,3,22,5,-6
1501624326536005,-4,1,-1,-1,-4,-10,-19,-5
1501624326544954,1,5,1,5,0,4,13,4
1501624326544954,-2,6,-11,-1,-1,11,3,-7
1501624326550978,-2,2,5,-3,-13,-45,2,2
1501624326550978,-3,-3,-2,2,4,21,-12,-7
1501624326565969,1,-1,0,3,3,-17,-22,3
1501624326565969,-4,-8,-9,-14,-15,-11,-4,-9
1501624326573029,0,-1,0,3,3,-30,-6,-1
1501624326573029,-4,-4,-3,-3,8,35,-8,-2
1501624326581995,-2,-4,-4,-7,-18,-56,-14,-1
1501624326581995,7,6,6,9,17,66,22,4
1501624326596048,3,-3,-7,-2,-4,-20,9,7
1501624326596048,0,6,6,-1,11,-13,6,1
1501624326605034,-13,-10,-2,0,-5,-33,-1,-6
1501624326605034,6,-3,2,-1,-22,-63,7,14
1501624326611004,2,2,3,12,22,7,-4,-2
1501624326611004,3,3,-9,-6,-1,20,8,0
1501624326626011,-6,-4,3,-1,-8,2,14,-5
1501624326626011,-1,-2,-5,2,29,25,0,-8
1501624326633032,-1,8,23,15,4,61,0,-4
1501624326633032,-1,-5,-2,-8,-16,-36,19,3
1501624326642039,0,2,1,0,4,-1,-12,-5
1501624326642039,-3,-9,2,-1,4,52,9,0
1501624326656099,-1,0,-1,-5,-2,-11,-48,-6
1501624326656099,4,-3,-10,-2,-6,-8,17,-2
1501624326665052,4,5,6,5,9,30,-7,0
1501624326665052,-8,3,-2,-1,19,38,4,-6
1501624326671106,2,-3,2,-6,-11,-51,1,3
1501624326671106,-3,-3,-9,0,-5,30,-2,0
1501624326686067,3,-1,0,1,3,-13,5,4
1501624326686067,-5,-1,-2,0,-2,-9,9,-6
1501624326693060,-3,-1,-10,-6,-8,-25,-14,0
1501624326693060,-3,-2,1,-1,6,38,4,-3
1501624326702076,2,3,-10,-8,-24,0,8,-1
1501624326702076,-6,1,2,2,16,12,-18,2
1501624326716131,0,1,-1,1,7,30,-6,0
1501624326716131,4,3,12,1,-19,-95,-14,5
1501624326725120,-4,0,-11,-5,3,-2,1,-4
1501624326725120,-2,-2,0,1,-4,-34,-12,3
1501624326731103,-4,-3,-15,-12,-15,-46,6,0
1501624326731103,0,-3,17,5,9,-8,-20,0
1501624326746178,-2,2,6,-2,-8,39,29,6
1501624326746178,-1,-1,-10,-1,-1,-15,-9,-3
1501624326753239,2,6,-3,-2,5,34,9,1
1501624326753239,-3,-6,-1,0,-4,-25,-4,-5
1501624326762189,2,-2,2,-2,-2,-30,-7,1
1501624326762189,-1,-2,-5,-5,1,-13,5,-2
1501624326775200,1,-6,14,3,-13,-21,10,6
1501624326775200,5,4,-19,-7,-2,26,11,5
1501624326784217,1,-1,1,0,2,-20,-16,-2
1501624326784217,-5,-2,-4,-6,-18,-33,-6,10
1501624326790222,-3,-5,-10,-5,18,1,-10,-6
1501624326790222,0,1,7,5,4,15,13,3
1501624326805228,0,-10,-6,-10,-15,2,-19,-7
1501624326805228,-2,1,1,0,-3,32,14,1
1501624326813226,-1,0,-2,1,-8,-13,10,-2
1501624326813226,-3,-8,-17,-6,14,14,-23,0
1501624326822245,-5,-3,-1,3,20,54,16,-2
1501624326822245,-1,-1,1,-3,-9,-43,-13,-2
1501624326835297,-1,0,2,-1,-1,-9,13,-5
1501624326835297,-1,0,-8,-1,-2,16,2,-2
1501624326844286,3,4,-1,2,3,-17,2,5
1501624326844286,1,-3,1,0,-6,-24,-16,-4
1501624326859273,-2,0,-5,-1,-6,-26,9,0
1501624326859273,-3,2,3,-2,-1,-12,-4,-6
1501624326865284,2,-9,-11,-2,7,9,2,-4
1501624326865284,3,7,-1,1,9,30,-11,-2
1501624326873268,-1,-4,1,-1,-12,-12,9,0
1501624326873268,6,5,15,4,-1,-20,-14,4
1501624326882288,-5,1,3,2,-2,-24,1,0
1501624326882288,1,1,1,1,4,25,1,-1
1501624326895339,-4,0,-8,-4,-20,-32,-11,-4
1501624326895339,-2,0,11,6,24,-4,15,5
1501624326904338,6,-5,-9,-4,1,-8,-15,2
1501624326904338,1,2,0,-7,-30,-9,5,0
1501624326919336,-3,4,-1,-1,17,20,-10,-3
1501624326919336,-5,-5,-4,-1,-2,-12,48,1
1501624326925361,-1,1,6,-4,-7,-25,-13,-2
1501624326925361,-4,-4,-5,2,0,-18,-17,0
1501624326933367,1,0,-5,-1,9,46,2,2
1501624326933367,-2,-5,-1,-3,-8,-9,-5,-2
1501624326942318,-1,2,-6,-2,1,23,-7,-8
1501624326942318,1,0,1,4,10,11,11,4
1501624326955384,2,5,1,-4,-20,-32,-23,-5
1501624326955384,2,-3,1,-1,11,-13,-21,-5
1501624326964350,-3,0,4,3,-3,-6,9,3
1501624326964350,-1,-3,-7,-7,-5,-16,-13,-8
1501624326978357,-3,-3,-9,-4,2,22,-12,-4
1501624326978357,-9,-6,-11,-7,-12,-10,-6,-9
1501624326985350,1,-2,1,-6,-16,6,-3,1
1501624326985350,3,-4,11,7,11,-8,9,2
1501624326993369,-2,4,1,-5,13,69,14,0
1501624326993369,-3,-5,3,0,-8,16,6,-4
1501624327002361,-3,-3,1,3,2,31,20,8
1501624327002361,-1,0,-5,-4,-5,-34,2,-3
1501624327015505,4,-6,6,3,-19,-43,2,3
1501624327015505,1,4,0,1,7,17,-18,1
1501624327024458,-4,-3,-2,0,9,-49,-2,-3
1501624327024458,-4,-1,-1,-3,-12,13,3,-1
1501624327038478,-3,-2,-3,-1,23,18,4,-5
1501624327038478,0,0,-3,-2,-14,-19,-11,1
1501624327047565,-3,0,5,3,-3,-21,-37,-4
1501624327047565,3,-3,-1,-3,2,20,13,6
1501624327053611,-4,2,-3,-3,-15,-72,-10,-4
1501624327053611,2,2,-4,0,-6,-8,1,0
1501624327062578,3,5,1,0,8,6,1,0
1501624327062578,-3,-4,0,1,-11,2,25,0
1501624327075628,-3,-1,7,1,20,33,1,1
1501624327075628,-1,-5,-4,-3,-4,-5,7,-3
1501624327084590,-2,-1,-1,1,-11,-49,13,4
1501624327084590,3,-3,1,1,21,-1,-9,-2
1501624327098636,2,-3,-1,4,-15,-8,11,5
1501624327098636,-1,3,-4,-4,-19,22,4,-1
1501624327107635,-3,-3,-1,1,39,43,-1,-3
1501624327107635,0,-4,-6,-4,-41,-40,-16,-3
1501624327113654,2,0,2,3,24,15,13,2
1501624327113654,-1,-4,-1,-1,10,8,-12,-2
1501624327122636,-4,2,-3,-1,-7,-56,-3,-3
1501624327122636,3,3,-10,1,5,41,8,1
1501624327135695,-2,0,-2,-8,-23,7,2,-1
1501624327135695,-1,0,-3,3,26,6,1,-3
1501624327144703,3,5,8,2,-6,10,10,1
1501624327144703,-5,2,-9,-3,17,0,-16,-5
1501624327157766,1,-5,-2,-11,-32,-44,-17,0
1501624327157766,0,4,-3,-4,-17,8,27,4
1501624327167734,-2,-2,-2,-5,15,3,-2,-7
1501624327167734,-2,0,3,-2,1,24,-18,-3
1501624327172778,-3,-4,-11,-3,-4,-53,15,1
1501624327172778,2,0,15,7,11,35,-26,2
1501624327187744,1,2,-8,-6,-8,25,4,-3
1501624327187744,-1,1,3,-2,-22,-28,13,0
1501624327195738,-1,2,1,1,20,0,-18,-7
1501624327195738,1,3,-8,2,22,46,28,2
1501624327204745,-3,-4,-1,-2,-11,-9,-11,-1
1501624327204745,-2,-4,-7,-3,1,20,4,-3
1501624327217754,-5,-5,3,3,13,24,1,-2
1501624327217754,-1,3,-4,-4,-18,-32,8,-7
1501624327227279,0,-1,1,2,7,81,-15,-4
1501624327227279,1,1,5,1,1,-30,-13,-1
1501624327233373,1,-8,1,2,-7,19,13,4
1501624327233373,-3,1,-3,-2,-11,-30,-12,-1
1501624327248631,4,0,5,2,-9,-19,4,6
1501624327248631,-3,-1,2,0,23,-5,-1,-1
1501624327255755,-3,4,5,1,-17,15,-6,-1
1501624327255755,-3,-6,-4,2,0,-19,-22,-3
1501624327264708,-1,1,7,3,0,0,14,2
1501624327264708,5,4,-4,0,-1,-14,0,4
1501624327278325,2,1,11,6,1,-15,-3,1
1501624327278325,-5,4,-9,-15,-19,0,0,-4
1501624327287383,-3,-5,-11,-2,26,27,3,-1
1501624327287383,-10,-6,4,2,0,-11,-3,-2
1501624327293373,9,2,-8,-5,-19,-11,-4,6
1501624327293373,-1,-2,5,3,20,-3,-3,0
1501624327308439,-3,0,0,-1,-2,-16,6,0
1501624327308439,-1,2,1,-2,-13,-11,-6,-4
1501624327315443,-1,1,-7,-2,11,-9,-6,0
1501624327315443,-2,-5,0,-7,-22,9,-5,-3
1501624327324411,-4,-7,-3,-4,9,-31,27,-5
1501624327324411,3,-7,-3,8,13,32,6,1
1501624327338466,11,1,-2,0,-5,-10,8,2
1501624327338466,-4,-1,-8,-2,-7,-13,0,-4
1501624327347410,-2,-6,-5,-2,-6,-1,-16,-3
1501624327347410,0,0,10,1,5,17,12,-5
1501624327353440,-6,-4,-14,-7,13,11,34,-6
1501624327353440,3,1,5,1,-14,-35,10,6
1501624327368480,3,1,7,0,-10,60,7,1
1501624327368480,3,-1,-1,1,-22,-48,-8,-2
1501624327375490,-6,0,4,4,26,33,-29,-7
1501624327375490,1,-3,-2,0,6,-12,7,3
1501624327384454,5,2,1,-1,-7,-28,-34,-3
1501624327384454,-2,2,-6,-4,-3,9,0,0
1501624327398502,-7,-1,-2,-1,-1,-1,-4,-2
1501624327398502,-2,-3,-1,4,9,-30,-15,-3
1501624327407456,6,-4,8,-1,-16,-21,-2,4
1501624327407456,0,3,-4,-5,0,-7,-13,0
1501624327413478,2,-5,-5,5,4,-37,1,2
1501624327413478,-3,5,-7,-6,8,12,-14,-4
1501624327428525,-6,-2,-5,-4,0,6,-5,-5
1501624327428525,-2,-2,-1,-3,-9,-1,16,-5
1501624327435528,-3,0,2,-2,0,11,-5,-2
1501624327435528,2,-1,3,2,2,-7,-9,-1
1501624327444495,-1,1,-3,-1,-10,4,22,4
1501624327444495,2,1,1,-3,-12,-23,8,6
1501624327458514,-2,-1,10,4,8,21,-3,3
1501624327458514,5,1,4,-1,-1,54,13,1
1501624327467496,-6,-1,-6,-8,-18,-37,-11,-1
1501624327467496,-3,-7,1,14,41,48,9,-2
1501624327481562,7,10,-2,-5,30,56,6,2
1501624327481562,0,0,5,4,-22,-52,-7,-3
1501624327488566,-8,0,-7,-3,-1,1,-1,-1
1501624327488566,2,-1,9,2,-1,-2,-5,3
1501624327504522,-4,-3,-6,-1,-10,-7,-4,-2
1501624327504522,-1,-1,-1,1,9,13,-19,8
1501624327506523,-2,-3,-2,2,4,-6,-13,0
1501624327506523,-2,0,-4,-6,-6,-11,-3,-3
1501624327518547,-5,-4,1,1,-9,-18,-10,-3
1501624327518547,2,-2,9,7,7,1,9,-1
1501624327527539,-5,0,-2,-5,-6,11,-10,-7
1501624327527539,0,-7,-6,-9,-19,-20,-13,2
1501624327541594,1,6,2,-1,-22,-12,0,-3
1501624327541594,-2,-2,3,8,27,16,-1,-1
1501624327548554,0,0,-11,0,21,9,0,-4
1501624327548554,0,3,-2,-1,2,22,7,-1
1501624327564579,-5,-3,-5,-2,-10,-30,-11,-5
1501624327564579,-2,-2,3,-4,-15,-2,8,0
1501624327566587,5,0,-6,-3,-10,-5,7,3
1501624327566587,0,2,-6,-5,8,11,-1,-2
1501624327578575,-1,-1,1,0,-5,13,7,1
1501624327578575,-1,4,-2,-3,-1,14,-3,-2
1501624327587582,2,0,-2,-1,-5,-42,-3,-3
1501624327587582,-2,-3,-5,-4,0,15,3,-3
1501624327601604,3,0,0,-1,-13,6,-3,2
1501624327601604,-5,-3,-7,-3,5,4,3,-1
1501624327608653,-6,5,4,4,5,17,14,-1
1501624327608653,5,-2,7,0,-18,-18,-24,1
1501624327624665,5,-4,-5,-2,6,4,35,8
1501624327624665,-2,1,1,-3,-13,-29,-19,-2
1501624327626610,-2,-4,2,1,10,18,-26,3
1501624327626610,-2,-1,-1,2,18,42,2,1
1501624327638645,2,3,7,3,-6,9,8,4
1501624327638645,0,-3,-3,-3,-4,13,-11,-6
1501624327647656,0,-1,3,1,-5,-33,-2,-3
1501624327647656,-2,-2,-4,0,7,28,18,9
1501624327661635,-2,-2,4,3,17,26,-17,2
1501624327661635,1,0,-6,-5,-15,-11,10,2
1501624327667653,0,-1,5,3,9,9,-3,-3
1501624327667653,-2,0,-2,-5,4,-9,2,-4
1501624327684671,-7,-5,-7,-2,-9,-4,2,-6
1501624327684671,-6,-2,-4,-1,5,-26,6,-4
1501624327685673,5,-1,-4,-4,-36,-63,31,4
1501624327685673,-2,-7,-1,5,32,42,-34,-5
1501624327698677,-3,1,3,-3,-11,-4,21,0
1501624327698677,-1,-3,-5,-3,16,10,-2,-2
1501624327707683,-2,-2,-5,-1,-5,0,-2,-4
1501624327707683,-3,3,-1,-2,-14,-33,-10,-4
1501624327721690,0,-3,0,0,5,9,-14,-3
1501624327721690,-1,-6,-3,0,-4,9,-2,0
1501624327727682,-1,0,0,-3,-5,49,8,-2
1501624327727682,0,1,-4,0,2,-17,5,2
1501624327744693,-1,1,-3,-5,1,6,7,-5
1501624327744693,0,-2,-4,-1,-6,-5,1,-3
1501624327745708,1,-3,2,1,8,-2,-11,0
1501624327745708,-1,-2,-3,-3,-1,-6,6,-3
1501624327757702,-3,1,-4,-3,2,-2,-3,-3
1501624327757702,3,6,8,3,-7,33,-23,3
1501624327772726,2,0,-1,-2,2,25,1,5
1501624327772726,-2,-3,-4,1,3,-14,19,-2
1501624327781733,-1,-2,-1,0,-17,-41,-15,-2
1501624327781733,2,2,-1,2,35,29,-14,-2
1501624327787862,-6,-4,-5,-2,2,-11,10,-2
1501624327787862,1,4,0,-3,-17,-15,-24,-5
1501624327804875,0,8,4,4,-16,22,-22,-2
1501624327804875,2,4,-1,-3,9,-14,15,6
1501624327805864,-1,-4,1,-1,-3,1,2,-2
1501624327805864,0,2,5,2,2,-23,-6,-2
1501624327817842,1,-3,-3,-6,-12,6,1,0
1501624327817842,-3,-9,-11,0,3,-2,22,-2
1501624327826834,0,1,-8,-1,-5,-21,-22,4
1501624327826834,-5,-3,0,-3,-7,-21,16,3
1501624327841861,7,-3,2,1,-6,-16,-5,5
1501624327841861,1,-1,-1,-8,-20,-5,-9,1
1501624327847905,-1,0,4,2,11,-1,-17,-8
1501624327847905,2,-1,-4,-1,9,36,-3,-1
1501624327864918,-3,-3,-5,-7,3,-21,3,-5
1501624327864918,-4,-4,-2,-4,-16,13,13,-2
1501624327865878,1,-1,1,1,7,30,-3,-1
1501624327865878,-2,3,-2,-3,-12,11,9,-1
1501624327877885,0,1,0,0,6,3,3,-5
1501624327877885,0,-2,4,3,13,0,-15,-1
1501624327886893,0,1,5,0,-9,25,5,-1
1501624327886893,0,-4,-8,-2,-1,1,7,-3
1501624327900900,-5,-1,-4,-1,10,-55,-11,-1
1501624327900900,-1,2,4,4,-6,61,27,-3
1501624327907947,2,-3,-2,-2,-1,-32,-5,5
1501624327907947,-1,-8,-8,-5,-4,-12,-23,-3
1501624327924959,-5,-2,-15,-7,-3,-7,2,-1
1501624327924959,-1,2,4,2,10,-2,13,-4
1501624327925905,1,0,-1,0,5,63,23,3
1501624327925905,-2,-1,8,0,-15,-23,6,-3
1501624327937913,1,-1,3,1,12,13,-2,2
1501624327937913,-3,-2,-6,-5,-8,-16,-21,-6
1501624327946935,-4,6,2,-4,1,-17,14,-3
1501624327946935,-1,-1,-3,-3,1,-15,-7,-1
1501624327961050,0,-1,-2,-3,-2,18,5,-3
1501624327961050,-4,-2,1,-1,-13,-14,7,3
1501624327968074,4,-2,-3,6,24,14,0,2
1501624327968074,2,5,4,0,-11,13,-2,0
1501624327985045,-1,-2,-1,1,16,-25,-20,-5
1501624327985045,-4,-7,3,-1,-8,-32,3,-1
1501624327986030,6,2,-3,2,-12,24,11,3
1501624327986030,-7,4,6,7,10,-20,12,-2
1501624327998038,3,2,-3,-4,0,46,33,5
1501624327998038,2,5,5,1,7,-4,-14,-3
1501624328007044,-1,-3,1,-5,-10,-43,-6,2
1501624328007044,-5,-3,2,3,6,0,1,0
1501624328021055,2,6,8,4,-9,-32,11,0
1501624328021055,2,1,2,4,16,16,12,-1
1501624328028072,1,3,4,-2,-9,-46,10,-2
1501624328028072,1,-3,-6,-2,4,1,-17,-4
1501624328044133,-7,-6,1,1,-9,33,-13,-1
1501624328044133,5,-1,-6,-2,-4,-20,17,3
1501624328046072,-3,4,2,-1,3,21,-16,-5
1501624328046072,-2,-3,-1,-1,-16,-17,6,-2
1501624328058094,-1,1,0,-2,4,24,13,1
1501624328058094,1,-5,-15,-4,-9,-51,-21,-4
1501624328067087,-6,-8,-1,-4,-6,27,7,-2
1501624328067087,-1,-6,1,-9,-9,-5,4,-1
1501624328081154,0,-10,-14,-6,-13,-16,-18,1
1501624328081154,2,-3,-2,0,2,-24,-5,5
1501624328088158,-8,0,-2,-3,-8,-16,-9,-9
1501624328088158,4,3,3,1,8,15,-7,6
1501624328104130,-2,-2,0,0,-5,-5,-14,-3
1501624328104130,-4,2,-3,-5,-10,-18,-2,-3
1501624328106115,-2,-4,-1,-1,7,-2,-4,-2
1501624328106115,5,2,3,4,5,1,12,2
1501624328118127,-6,1,-7,-6,-2,-19,-22,-13
1501624328118127,0,5,11,8,5,43,16,3
1501624328127130,0,-11,-23,-9,-17,-65,-17,-3
1501624328127130,-1,5,1,-1,14,5,-9,-1
1501624328141153,1,-5,2,1,7,3,-2,3
1501624328141153,-9,-5,-1,0,-7,-8,-23,-6
1501624328148158,2,3,6,5,11,44,24,-1
1501624328148158,-2,-1,-5,-4,-21,-26,-24,-7
1501624328164157,2,-2,-2,3,7,9,11,2
1501624328164157,-2,-2,11,1,-13,-11,-5,-1
1501624328171191,0,-1,-7,-4,2,39,-12,2
1501624328171191,0,2,-6,-2,2,14,6,-2
1501624328178166,-2,3,3,3,0,31,4,-2
1501624328178166,1,-1,3,1,0,-2,1,0
1501624328187173,-3,-3,-4,-2,-3,14,-2,-1
1501624328187173,-3,-4,-1,-5,-6,10,13,-2
1501624328200183,1,1,3,0,-6,-21,3,4
1501624328200183,-1,4,-4,-5,-7,25,21,5
1501624328209192,0,-1,12,7,30,-6,-4,-2
1501624328209192,-2,-4,-18,-5,-13,-16,-13,-2
1501624328224213,-3,0,-1,2,13,20,-16,-5
1501624328224213,-2,0,-3,-1,6,9,-17,-2
1501624328230217,0,6,3,1,-2,30,25,3
1501624328230217,1,-3,3,0,0,9,-12,-3
1501624328238248,5,-1,6,2,-7,-26,-7,1
1501624328238248,-3,-1,-5,-4,-11,-55,10,-3
1501624328247216,-2,-6,2,0,5,-11,-18,-2
1501624328247216,-1,9,2,0,20,7,-2,0
1501624328260240,-1,1,2,3,-2,12,6,2
1501624328260240,1,-2,-2,0,7,12,-3,-2
1501624328270248,-2,0,-1,-4,-18,-49,0,-1
1501624328270248,0,-5,-2,-1,-7,-40,-9,-1
1501624328284299,-4,-1,4,-1,1,-11,0,-2
1501624328284299,4,2,-3,-4,4,25,15,0
1501624328290303,1,3,-1,0,-12,-17,-19,0
1501624328290303,-3,-1,-1,0,7,9,1,1
1501624328307313,-1,3,-1,-1,1,-4,17,1
1501624328307313,-2,-2,1,-1,0,6,-5,-3
1501624328308324,1,-2,-6,-3,-7,-30,-2,-2
1501624328308324,-1,2,2,-2,-1,38,9,2
1501624328320325,-1,-5,-5,-3,-8,-4,-7,-1
1501624328320325,-2,-4,-8,1,18,0,-6,-3
1501624328329333,-1,1,0,-1,-7,-25,3,-1
1501624328329333,1,-4,5,2,6,19,12,0
1501624328344286,-3,-6,-8,-7,-8,-1,-6,-1
1501624328344286,2,-3,-10,-1,7,26,8,3
1501624328350347,0,-4,1,-3,-10,-42,11,3
1501624328350347,-3,0,0,-2,-1,5,-3,-6
1501624328367359,1,-1,-5,0,-2,-12,10,5
1501624328367359,-2,-4,3,-1,-6,-3,-11,1
1501624328368346,-3,-1,-8,-5,5,14,-12,-5
1501624328368346,-2,2,-3,-3,-16,-52,6,-1
1501624328380446,-1,-1,-2,-1,6,10,26,-1
1501624328380446,-4,2,-3,-5,-10,-8,-23,-6
1501624328389412,3,-3,0,1,-23,16,5,3
1501624328389412,2,-4,1,1,22,12,2,0
1501624328403404,-1,1,-1,1,10,21,-9,-3
1501624328403404,-2,-1,-2,-5,-7,-2,-1,-1
1501624328410409,-2,2,1,1,3,1,7,2
1501624328410409,1,1,2,1,-2,27,-3,3
1501624328427474,0,-4,0,-4,-14,-11,0,0
1501624328427474,-1,-1,1,2,19,34,-7,-4
1501624328428439,-1,5,9,5,1,14,-2,-5
1501624328428439,-3,-3,-6,0,-3,5,9,1
1501624328440483,-1,-1,2,-3,-1,-28,-15,-1
1501624328440483,2,0,3,1,-11,-13,-3,-1
1501624328449456,-2,0,-7,-5,10,17,-2,-2
1501624328449456,1,-7,0,2,-1,-17,23,5
1501624328463460,1,-4,-2,1,16,-10,-19,-3
1501624328463460,-1,-1,4,3,-8,-14,11,1
1501624328470509,1,-1,-2,-2,-1,-49,-16,-4
1501624328470509,-1,-1,-5,-5,-9,-35,-14,-2
1501624328487546,-1,2,6,1,-9,3,-2,-2
1501624328487546,3,-5,3,3,16,-16,0,1
1501624328488562,-2,0,-2,-6,-4,13,5,-1
1501624328488562,-2,0,-5,-3,-2,-22,-14,-3
1501624328500555,-2,0,-1,-4,-19,-2,0,-3
1501624328500555,-2,4,0,1,13,30,10,-1
1501624328509562,1,-1,1,1,13,42,-7,-1
1501624328509562,-3,-3,3,0,-6,0,-4,-2
1501624328523628,-3,0,-3,-2,2,53,-1,-1
1501624328523628,5,1,-4,-5,-13,-10,-2,-1
1501624328530635,-5,-5,-3,-1,6,17,7,-3
1501624328530635,-2,-1,6,4,-8,-74,-42,-4
1501624328547607,2,-6,0,-2,-11,28,54,8
1501624328547607,6,2,-1,0,9,4,-15,0
1501624328548604,1,1,-1,1,-13,-44,-7,-1
1501624328548604,-1,0,4,-3,-10,1,0,-5
1501624328560599,-1,2,-5,3,26,-5,-9,-2
1501624328560599,-4,0,-3,0,-12,-15,6,-1
1501624328569620,-2,-6,3,-2,0,4,8,-2
1501624328569620,3,6,-3,1,8,19,0,3
1501624328583627,0,4,-4,0,6,-14,-2,1
1501624328583627,-3,-9,-5,-5,-8,15,3,-1
1501624328590676,0,-2,-1,3,6,5,-14,-5
1501624328590676,-3,1,1,-2,-21,-3,7,1
1501624328606689,4,1,0,1,38,28,-1,-5
1501624328606689,-5,-3,-9,-3,-7,-28,9,-1
1501624328608635,-3,-3,-2,-5,-4,36,-20,4
1501624328608635,0,-3,-1,0,-6,4,24,5
1501624328620697,-4,-6,-4,0,-3,-21,-8,-5
1501624328620697,-3,0,5,2,-2,6,-1,-2
1501624328629650,-2,0,-9,0,3,31,21,-3
1501624328629650,6,-2,7,4,8,38,-7,6
1501624328643666,-1,0,2,2,-12,-3,-4,0
1501624328643666,-2,-3,-1,-2,-10,-9,6,2
1501624328650718,-2,-3,-3,-4,1,35,5,-1
1501624328650718,-3,5,2,0,1,-11,-15,-3
1501624328666727,-2,-4,-6,-4,-2,5,-8,-5
1501624328666727,0,4,5,-1,-10,-16,-5,2
1501624328668675,0,0,-6,-1,9,-7,12,3
1501624328668675,0,-4,0,-1,-11,17,4,-2
1501624328680733,-2,1,-1,-1,3,3,-6,0
1501624328680733,-2,-2,1,1,-3,12,33,5
1501624328689690,3,5,4,3,0,-58,-37,-2
1501624328689690,-5,-1,-9,-7,-4,-29,6,-6
1501624328703756,4,-2,1,-2,-3,-6,-10,-1
1501624328703756,-3,-4,-4,0,11,10,-3,-2
1501624328710719,1,3,2,3,-7,-12,0,1
1501624328710719,-1,0,-3,0,20,13,3,-5
1501624328726716,-2,4,0,0,-17,-30,-23,-1
1501624328726716,0,-6,-6,-4,-3,24,-10,0
1501624328728718,0,-3,2,0,0,10,5,-2
1501624328728718,-3,-1,1,0,-1,5,8,0
1501624328740865,-1,-2,-3,-4,-11,-24,-9,-1
1501624328740865,0,-2,-2,-2,-2,-22,-16,-2
1501624328749817,-6,-1,3,0,1,-13,6,-4
1501624328749817,-3,-5,-1,-3,-7,26,-5,-3
1501624328763880,1,1,-6,3,-3,14,-10,1
1501624328763880,-5,2,1,0,7,-3,5,-3
1501624328770886,4,3,-2,-4,-5,-17,9,1
1501624328770886,-3,-1,-4,1,19,31,-2,-1
1501624328786898,-3,-4,-1,-3,-13,-5,3,-4
1501624328786898,0,-2,5,2,16,5,3,-1
1501624328788856,1,-1,-3,-1,-10,-6,-4,-2
1501624328788856,-2,-1,-4,-3,5,-24,-8,-2
1501624328800908,1,3,6,3,-2,7,16,3
1501624328800908,1,3,-6,1,-2,-8,6,-1
1501624328809871,0,-8,-1,-3,-5,-19,-9,1
1501624328809871,-1,0,-5,-2,-13,-24,-15,-3
1501624328823923,-2,-3,-5,-5,5,17,-1,-3
1501624328823923,-2,2,9,-1,0,-22,-26,-5
1501624328830898,0,-6,-7,0,-5,-5,-5,-2
1501624328830898,-1,-7,-4,1,-4,-31,-8,-2
1501624328846941,1,-1,-3,-3,-4,-24,-2,-1
1501624328846941,-1,-1,-1,0,9,49,-1,-2
1501624328848900,2,-1,4,4,-7,18,24,1
1501624328848900,-2,1,-2,-4,-1,-38,-13,-1
1501624328860922,-1,0,5,1,-4,7,10,-1
1501624328860922,1,1,0,-2,-15,-15,11,-1
1501624328869915,-4,3,-1,2,2,-9,6,0
1501624328869915,7,1,0,2,21,27,7,-2
1501624328883969,-1,0,0,0,-2,9,4,1
1501624328883969,-2,-3,-8,-4,-4,-2,-18,-3
1501624328890916,-5,1,-3,-2,-10,-14,-6,2
1501624328890916,2,2,4,2,9,33,6,7
1501624328906982,-4,-2,-4,-1,5,0,-9,-4
1501624328906982,-1,-3,3,3,-2,24,6,0
1501624328908927,1,2,-3,-7,-9,-33,3,1
1501624328908927,-4,-5,-2,0,5,18,4,-5
1501624328920987,-1,-3,-4,-3,1,2,-1,6
1501624328920987,0,3,-2,-1,-9,-19,-15,4
1501624328929957,-1,-2,-1,3,14,15,14,-1
1501624328929957,0,2,7,2,-7,-14,-5,1
1501624328944008,4,-2,-3,-2,-10,10,-8,-1
1501624328944008,-1,-1,-4,2,20,14,-2,-4
1501624328951012,-1,-1,4,-1,-5,2,-11,-1
1501624328951012,2,3,-1,-4,-8,-55,1,-4
1501624328967025,-2,-2,2,1,-1,-5,7,-2
1501624328967025,-1,4,-4,-5,-10,-10,-4,0
1501624328968973,-1,-1,2,1,8,27,-19,-5
1501624328968973,-1,-4,-2,0,1,6,-11,-1
1501624328981035,0,-3,0,-3,-6,-11,8,1
1501624328981035,0,-1,1,0,-6,-20,2,-1
1501624328989987,-2,0,-2,-1,-1,-8,-2,-2
1501624328989987,0,0,-1,-3,-8,22,2,4
1501624329004050,-2,-5,-4,-3,-8,-39,-13,-4
1501624329004050,5,3,1,2,5,4,12,1
1501624329011057,-4,-2,-6,-2,8,15,-3,-3
1501624329011057,-3,0,-3,-3,-20,-17,-12,-1
1501624329027011,-2,0,-1,1,12,10,13,-1
1501624329027011,1,0,3,3,-12,3,4,1
1501624329029013,-1,-4,5,1,5,-22,-2,0
1501624329029013,-4,-4,-14,-9,-12,-8,3,-1
1501624329041036,-4,-5,3,1,3,-20,-8,-3
1501624329041036,-1,-5,-11,0,-6,-17,-9,-2
1501624329050042,-1,0,3,0,2,12,3,-1
1501624329050042,0,-3,-2,2,8,32,11,3
1501624329064094,2,2,2,2,1,14,3,0
1501624329064094,-1,-1,-4,-7,-4,-7,-7,-1
1501624329072059,3,1,-2,-2,-3,2,6,3
1501624329072059,1,-2,5,2,-3,16,4,-3
1501624329086104,1,1,0,-3,-5,-32,2,-2
1501624329086104,0,-2,2,-1,-11,-14,6,4
1501624329093060,-6,0,-3,-4,3,27,-14,-4
1501624329093060,2,2,3,1,2,12,-14,-3
1501624329101115,-5,-2,-6,-2,-8,-14,6,-1
1501624329101115,-3,1,1,-5,-3,16,1,-2
1501624329110074,-6,0,-5,-5,-14,-4,-22,-4
1501624329110074,2,-2,2,2,6,21,14,2
1501624329124095,1,4,-4,-3,6,0,1,-2
1501624329124095,-4,-1,-1,-7,-9,-28,4,1
1501624329131085,0,-6,-5,0,0,0,18,1
1501624329131085,-1,2,0,3,9,-6,7,-2
1501624329146109,-2,-3,-1,-3,-1,60,-3,-1
1501624329146109,-1,-1,-5,-2,-1,1,-3,-3
1501624329153115,1,0,4,6,8,3,10,3
1501624329153115,-6,-3,-2,-4,-4,3,1,-1
1501624329161120,-1,4,3,2,-4,-12,-23,-4
1501624329161120,3,0,1,6,-3,-8,14,5
1501624329170126,-2,2,-2,-2,14,1,6,-3
1501624329170126,-1,-3,0,-2,-8,18,-5,-2
1501624329184137,1,1,6,4,4,-4,-1,-2
1501624329184137,-5,1,2,-3,-2,-37,-7,-2
1501624329191141,3,4,3,1,-8,-36,1,-3
1501624329191141,-3,-1,-8,-4,-3,2,0,0
1501624329206152,-1,1,-2,-1,-3,-3,-3,-1
1501624329206152,-3,-5,-5,-3,-5,-36,-28,-7
