timestamp,emg1,emg2,emg3,emg4,emg5,emg6,emg7,emg8
1501623209349955,6,-1,-2,-4,-18,-39,-10,-1
1501623209349955,-3,5,-3,-5,21,60,2,-4
1501623209350955,-4,-7,1,3,8,-2,-1,-2
1501623209350955,-3,-3,0,0,-1,-3,-34,12
1501623209351956,-1,0,-3,-2,1,29,29,-10
1501623209351956,-6,-4,2,-3,-30,-57,-14,-2
1501623209352957,1,7,-6,-9,-24,-21,6,-7
1501623209352957,2,0,3,4,24,9,-19,-4
1501623209362964,0,-3,-3,-1,7,-78,-33,-3
1501623209362964,3,-1,2,4,2,55,24,5
1501623209373970,-15,-8,-6,-5,-9,18,19,-2
1501623209373970,12,3,0,1,24,-99,4,6
1501623209377974,-5,-5,0,-1,-2,16,-51,-2
1501623209377974,-1,1,-1,2,6,11,4,-9
1501623209393985,-9,-2,-2,-3,-8,-27,-31,-7
1501623209393985,-3,4,1,3,4,55,29,7
1501623209402992,0,-1,-4,1,7,-28,31,10
1501623209402992,7,-2,3,-2,-1,-10,-43,-1
1501623209407981,6,-3,-1,-6,-10,23,-7,-6
1501623209407981,1,3,-2,-1,20,85,9,-2
1501623209422991,2,0,6,3,-19,5,-5,-5
1501623209422991,-4,-4,-1,-2,-15,-11,-14,3
1501623209432013,4,3,3,4,12,-44,-4,-3
1501623209432013,-8,-1,0,1,-23,21,17,-12
1501623209472041,5,2,-4,0,9,51,-12,-7
1501623209472041,-7,2,-3,-1,-15,-17,76,12
1501623209472041,7,3,-4,-1,23,42,-22,-5
1501623209472041,-2,-4,1,3,-3,-6,7,0
1501623209473026,-7,-4,4,1,9,14,10,-1
1501623209473026,4,0,1,1,1,31,-17,-5
1501623209476043,0,2,0,1,-19,-42,-4,1
1501623209476043,2,0,2,2,8,-18,17,-1
1501623209483048,-6,-7,-4,-11,-28,-25,-27,-2
1501623209483048,7,5,2,5,12,10,-24,-3
1501623209491066,-4,-2,0,-7,-22,-24,10,-2
1501623209491066,0,-2,-4,-6,-4,-3,-27,-2
1501623209498058,-17,-4,3,5,15,31,31,11
1501623209498058,6,-4,-5,-8,-35,-34,-74,1
1501623209514070,-9,-8,-1,0,33,43,21,-5
1501623209514070,-2,-3,-1,0,-18,-20,4,12
1501623209520074,9,6,-1,-4,-17,-34,-5,-2
1501623209520074,-7,-3,-3,5,53,40,13,-4
1501623209528080,-2,0,5,2,-20,-31,-17,-4
1501623209528080,-3,4,-1,1,20,71,15,-3
1501623209543090,9,0,5,1,-30,-86,-4,-2
1501623209543090,10,1,1,1,-17,-32,0,5
1501623209551096,7,-3,-5,2,17,4,11,3
1501623209551096,-3,-3,-3,-4,-14,30,-8,-11
1501623209558101,2,-1,-2,-1,22,-26,0,7
1501623209558101,-2,-2,-4,-8,-25,-2,5,-4
1501623209574112,-14,-7,-3,0,42,27,16,-1
1501623209574112,10,1,9,2,-28,-64,-24,-12
1501623209580117,-2,0,-7,-4,3,55,25,19
1501623209580117,-5,0,4,0,8,-33,8,-3
1501623209588122,-3,5,-7,-7,-18,-30,-9,-13
1501623209588122,-11,0,-3,-2,6,-34,2,5
1501623209603133,6,1,-1,-1,-9,-44,-5,-6
1501623209603133,-6,-4,-1,1,9,12,-14,-8
1501623209611139,2,-3,1,-3,-17,-40,0,3
1501623209611139,9,-2,-4,-9,-15,-3,-3,-5
1501623209618144,-7,-3,4,9,20,64,-19,-10
1501623209618144,12,2,-2,-1,-7,33,22,4
1501623209634155,-1,1,-4,-7,-42,-24,1,12
1501623209634155,-13,-5,-5,2,42,38,-30,-20
1501623209640144,-10,-2,-2,-4,2,44,29,4
1501623209640144,-3,0,-3,-3,-21,-54,-19,-8
1501623209648150,0,1,5,3,-19,-5,-7,-3
1501623209648150,-4,-5,-8,-5,15,0,19,-3
1501623209663177,6,0,-2,-3,-7,-25,-4,-1
1501623209663177,-6,-1,-3,-5,-23,-40,-2,-11
1501623209671182,7,5,1,4,10,52,51,13
1501623209671182,-5,-4,2,5,-7,-50,8,19
1501623209678183,5,-4,-1,2,25,7,-13,-3
1501623209678183,-1,4,-2,-10,-15,-14,1,-3
1501623209694194,-4,-4,-3,1,27,28,1,-8
1501623209694194,2,-2,3,1,-16,-16,-3,-3
1501623209700203,8,-4,-4,-4,-12,-11,-13,7
1501623209700203,0,-2,-1,-2,16,43,-7,-3
1501623209708207,-8,1,0,1,-1,-22,-22,2
1501623209708207,-2,1,3,-1,-2,71,3,5
1501623209723216,0,-1,-6,-3,-10,-53,-20,-11
1501623209723216,-1,-6,0,0,6,39,-4,-6
1501623209731223,2,-2,-1,-6,-35,-43,-14,-3
1501623209731223,1,2,-2,3,44,32,8,-16
1501623209738229,5,2,3,-3,-37,-48,3,19
1501623209738229,-6,-1,-1,2,15,28,5,3
1501623209754224,5,-3,0,3,16,-27,-2,7
1501623209754224,16,7,-2,-6,-32,31,8,4
1501623209760243,-3,1,-3,-5,-2,0,3,-17
1501623209760243,-1,0,3,6,35,11,-6,2
1501623209768250,5,-2,-2,-5,-12,5,8,-2
1501623209768250,2,0,-4,0,-11,-13,-45,-1
1501623209783260,-9,2,1,1,-5,46,11,-6
1501623209783260,3,-4,6,2,-2,-29,8,7
1501623209791265,-2,0,-4,-1,2,27,-16,-4
1501623209791265,-3,-4,-4,-4,-18,-49,-8,-4
1501623209798270,-11,-3,-3,-1,7,20,12,-10
1501623209798270,-4,-6,-3,-3,-3,14,-13,19
1501623209814286,-1,-2,2,0,18,40,-5,-4
1501623209814286,-1,2,2,1,-21,-20,6,7
1501623209820286,11,6,0,-1,7,-9,-11,-6
1501623209820286,-6,-2,-1,1,5,-9,20,-11
1501623209836297,-6,-4,-7,-8,-19,-40,-23,-5
1501623209836297,-12,2,2,4,37,54,1,5
1501623209843302,0,0,-1,6,38,-29,11,-6
1501623209843302,-4,0,0,-2,-14,56,7,1
1501623209851308,3,-2,0,0,-2,23,-7,9
1501623209851308,-11,-8,-7,-6,-5,-16,3,2
1501623209858312,7,6,7,8,22,-27,-16,-7
1501623209858312,-7,-5,-8,-8,-25,-9,-36,3
1501623209873311,8,5,2,2,6,-5,21,12
1501623209873311,0,-2,1,1,33,-13,-8,-8
1501623209880328,-13,-5,1,1,-9,28,9,6
1501623209880328,0,-1,-8,-2,-4,-34,9,-15
1501623209896340,-1,0,1,1,-2,4,-12,-5
1501623209896340,-14,0,0,-2,1,2,6,-6
1501623209903344,32,3,4,4,12,79,-13,19
1501623209903344,-9,-6,4,1,-15,-64,4,-2
1501623209911347,-8,3,-2,0,7,5,22,-9
1501623209911347,3,1,-2,-5,-18,1,22,-4
1501623209918355,-1,-4,-5,-1,1,32,-8,-5
1501623209918355,0,1,0,1,7,-4,8,4
1501623209933366,0,0,-5,-2,1,-22,1,0
1501623209933366,11,3,2,0,-13,14,2,5
1501623209940358,-5,-1,-3,-3,-12,-31,-22,-11
1501623209940358,7,3,3,-4,-17,13,-30,-6
1501623209956370,-9,-4,7,12,53,-19,5,8
1501623209956370,-4,-4,0,-5,-24,-29,2,3
1501623209963387,-5,-5,0,0,-15,-46,0,2
1501623209963387,-3,5,-2,1,15,17,16,0
1501623209971392,-10,-2,-8,-4,-18,29,-20,-23
1501623209971392,-2,-2,5,8,31,91,-5,14
1501623209978397,-6,0,1,-4,-3,26,6,6
1501623209978397,12,3,-1,-2,-4,-30,6,-6
1501623209993408,-1,1,-4,-1,9,24,1,3
1501623209993408,5,3,-1,-2,-21,-57,2,-2
1501623210000413,-1,0,-3,-3,3,-34,6,3
1501623210000413,3,-2,3,5,25,41,-4,9
1501623210016425,-2,-6,-4,-9,-27,-5,-9,-17
1501623210016425,5,5,1,2,-10,15,44,11
1501623210023414,-5,-3,-2,-4,-9,-6,-12,-10
1501623210023414,10,3,-3,-7,-2,9,18,13
1501623210031435,-1,4,3,5,6,-13,-24,-11
1501623210031435,1,-1,-6,-5,-3,-38,-9,4
1501623210038439,0,-2,-1,-4,-21,-23,34,4
1501623210038439,-2,-1,6,9,25,1,-7,-10
1501623210053450,2,0,-3,-4,-20,2,16,17
1501623210053450,-3,-2,2,4,26,17,-17,-20
1501623210060455,7,0,-6,-12,-30,-22,5,0
1501623210060455,-13,-2,0,2,18,-28,-29,-1
1501623210076467,1,2,5,7,14,27,15,-6
1501623210076467,2,-2,-4,-3,-13,-45,-34,6
1501623210083472,-8,0,-3,2,23,22,-4,0
1501623210083472,0,-2,-3,0,-1,87,43,3
1501623210091477,10,-4,1,-3,-19,-40,-7,3
1501623210091477,-7,-2,-3,1,9,-3,-10,-11
1501623210098483,-4,2,0,-3,-10,25,-35,2
1501623210098483,-7,1,-3,1,-8,-20,11,-7
1501623210113492,11,2,-4,-4,-4,6,-7,5
1501623210113492,6,0,1,-2,-17,-48,-17,-2
1501623210120498,-7,-4,0,1,7,-38,9,-8
1501623210120498,3,-5,0,0,9,-7,-19,-4
1501623210136494,-7,0,0,-5,-30,-38,6,6
1501623210136494,10,3,2,1,21,11,19,0
1501623210143514,-13,-2,-3,3,12,-17,7,-5
1501623210143514,-5,0,0,1,8,38,-9,-3
1501623210151519,5,0,-2,-4,-13,-9,-13,3
1501623210151519,-1,1,-3,-2,12,1,19,4
1501623210165529,3,-3,-1,0,-26,-60,-11,-6
1501623210165529,-3,-3,-2,0,25,20,-7,2
1501623210173520,-6,-3,-3,-5,-1,20,5,-13
1501623210173520,-3,1,0,-2,-16,27,14,4
1501623210180540,9,2,2,6,11,30,9,12
1501623210180540,-2,-2,-6,-9,-29,-18,0,-9
1501623210196551,-4,2,-2,-2,-14,-27,38,5
1501623210196551,-9,-9,-1,9,78,94,-31,-21
1501623210203556,-6,-5,-1,-1,-11,14,10,9
1501623210203556,8,3,-1,0,-12,-17,13,13
1501623210210561,5,-1,0,-2,-13,-34,-53,-15
1501623210210561,-8,1,-4,-6,-6,35,37,2
1501623210225571,5,-4,-2,-1,4,-26,-14,0
1501623210225571,-8,-4,1,-2,-7,-43,-11,1
1501623210233577,21,2,1,3,4,-2,-11,-6
1501623210233577,1,6,4,3,-7,-34,-28,5
1501623210240567,-7,-3,2,-1,-9,9,-21,-10
1501623210240567,1,1,0,4,21,-1,-13,-4
1501623210256581,-10,-2,-1,-4,-10,38,-6,-7
1501623210256581,-4,-7,-4,-3,-12,-37,-21,-1
1501623210263585,8,5,-3,-2,-9,24,-7,5
1501623210263585,5,0,-5,-4,14,-22,18,-3
1501623210270603,-6,-1,4,4,11,45,13,10
1501623210270603,2,-2,-2,0,-17,20,12,2
1501623210285614,-8,1,2,1,-1,5,-16,-7
1501623210285614,-7,-5,0,-4,-36,-10,36,8
1501623210293622,6,-1,-4,3,39,39,-3,1
1501623210293622,-10,-4,0,-4,-17,-15,-13,-6
1501623210300625,3,2,4,3,-18,-45,20,7
1501623210300625,-3,5,-3,1,25,23,-4,-5
1501623210316621,-2,-1,0,-7,-37,-27,2,8
1501623210316621,4,4,0,0,-10,-22,13,14
1501623210322634,-1,-2,3,6,38,19,10,-9
1501623210322634,14,2,1,-1,-20,-52,-40,-2
1501623210330646,-16,-8,-7,-7,4,5,11,-2
1501623210330646,3,-1,1,-3,-35,-5,-4,-5
1501623210345652,-7,-2,-3,-3,23,-15,-27,-4
1501623210345652,1,-3,0,-4,-20,-10,1,-4
1501623210353662,-5,-3,-1,4,19,-11,-31,-6
1501623210353662,2,-2,-3,-9,-23,-55,0,4
1501623210360667,-8,-2,0,2,11,52,16,-7
1501623210360667,-3,0,-1,2,-14,-63,-21,3
1501623210376678,-14,1,-2,-1,10,45,5,-7
1501623210376678,6,1,-5,-3,0,-11,29,3
1501623210382682,0,0,3,1,-1,37,4,3
1501623210382682,8,1,-4,-3,12,4,14,2
1501623210390673,-2,-3,3,7,10,-25,6,1
1501623210390673,0,-1,4,1,5,-7,-14,-15
1501623210405698,-6,-3,-13,-8,-8,41,-2,2
1501623210405698,-5,-6,0,-5,-26,-3,-24,-11
1501623210413704,1,3,-1,3,4,3,-2,-2
1501623210413704,5,-1,-2,0,13,-10,-12,-1
1501623210420710,-7,-3,1,1,10,-4,-8,-3
1501623210420710,-7,2,0,1,-1,-38,-19,1
1501623210436720,-1,-7,-5,-8,-27,-75,-21,-4
1501623210436720,0,0,4,8,27,7,-17,5
1501623210442724,4,3,1,-2,-8,-1,11,0
1501623210442724,-2,0,-3,-1,-1,12,4,4
1501623210458721,11,6,5,1,7,-38,-9,0
1501623210458721,-10,-1,-2,-3,0,35,17,4
1501623210465741,4,-2,-5,-7,-9,-43,-25,-13
1501623210465741,-19,-2,2,3,0,-11,15,-6
1501623210481752,20,0,-1,-2,-10,-9,0,12
1501623210481752,-4,-5,-1,-1,11,22,2,-6
1501623210483754,1,1,-4,-5,-1,16,24,10
1501623210483754,-3,-2,-2,2,31,79,37,-10
1501623210496763,-5,-3,2,-2,-5,40,21,6
1501623210496763,-1,0,-4,-2,-13,-9,-11,-2
1501623210502767,3,-2,-6,-8,-19,-10,-1,-14
1501623210502767,7,3,0,-4,-20,-40,-13,20
1501623210518779,-3,-1,0,3,25,1,7,-6
1501623210518779,8,3,2,5,15,44,19,4
1501623210526785,-6,-6,-2,-2,2,5,-3,-3
1501623210526785,1,3,-2,-2,-1,-3,-3,-4
1501623210541794,-7,-2,-4,-1,1,78,15,0
1501623210541794,-2,-1,-2,-7,-25,-2,-9,-7
1501623210543781,1,0,0,6,10,-12,23,5
1501623210543781,3,-1,4,1,3,41,16,3
1501623210556790,-8,-2,-2,-1,-12,-30,-22,-3
1501623210556790,0,4,-3,-3,-17,-14,36,8
1501623210562809,0,-2,-3,-2,5,42,0,-10
1501623210562809,5,-4,-3,-3,-2,5,-21,-5
1501623210578806,4,3,5,-1,-11,-14,27,3
1501623210578806,-8,-4,-4,-3,-11,-26,-20,-11
1501623210585811,-13,-4,-2,-3,9,20,-6,-7
1501623210585811,7,2,-3,-2,-11,-9,-3,6
1501623210601836,5,-3,-1,-2,4,20,-17,-6
1501623210601836,-5,-7,-4,-3,9,-7,6,2
1501623210603838,1,-2,-1,0,-7,8,-9,8
1501623210603838,-5,-3,4,5,8,-8,7,-11
1501623210615847,1,2,-5,-3,-12,-39,-8,0
1501623210615847,-6,1,3,-2,-13,-29,55,9
1501623210622840,1,-1,2,4,22,0,-7,4
1501623210622840,-4,1,-2,-3,-24,-30,-4,6
1501623210638863,-7,-5,-1,3,19,1,7,-7
1501623210638863,-6,2,0,0,7,3,1,0
1501623210645868,0,-2,1,-2,-13,-22,27,11
1501623210645868,-5,-3,-1,-2,1,11,-23,-9
1501623210661879,-7,1,-5,-1,4,27,-2,0
1501623210661879,5,5,1,0,-9,-20,-14,3
1501623210663881,-2,0,-2,-2,2,-15,1,-6
1501623210663881,-1,-3,-1,1,22,35,8,0
1501623210675889,-3,-4,-7,-4,6,-5,-25,-6
1501623210675889,-2,-3,-6,1,8,58,-28,-9
1501623210682894,-2,0,3,-1,-25,-98,-14,3
1501623210682894,-3,-4,-3,-1,-7,-9,-1,-4
1501623210698905,-7,-2,0,3,23,14,1,-9
1501623210698905,8,-2,-4,-4,1,-37,-25,2
1501623210705898,-6,3,4,1,-21,-17,-6,-1
1501623210705898,6,0,-1,-2,13,17,-29,3
1501623210721910,3,3,1,0,-8,-18,10,10
1501623210721910,1,-4,1,0,0,-12,-27,-13
1501623210723909,-2,-2,-3,0,5,35,16,2
1501623210723909,9,-1,-3,-8,-17,19,-34,-5
1501623210735918,-3,-2,-1,-2,-2,41,-2,-7
1501623210735918,-2,0,-3,-4,-20,4,38,4
1501623210742922,-5,1,-2,2,9,4,-38,-10
1501623210742922,-4,-2,-6,0,13,-1,13,-3
1501623210758947,-1,-5,1,-3,3,-27,-6,-7
1501623210758947,13,-4,2,-1,-11,-63,-41,14
1501623210765952,4,2,-2,-5,-12,33,-6,-15
1501623210765952,-22,-7,-4,-1,0,5,1,15
1501623210781964,13,3,-1,-6,-35,14,20,3
1501623210781964,-13,-4,-1,-3,-6,-64,-29,-9
1501623210783950,19,3,7,8,50,27,13,10
1501623210783950,-2,-1,3,0,-16,-18,12,-2
1501623210795974,1,4,-3,-2,-7,-17,13,16
1501623210795974,-6,0,-4,-1,12,41,0,-12
1501623210802979,2,-2,-2,-1,-4,-12,5,6
1501623210802979,-4,2,-2,-3,-17,-3,19,-5
1501623210818990,-7,-1,7,11,23,-25,-32,-10
1501623210818990,-3,-2,-3,-9,0,27,8,-1
1501623210825995,-3,-5,-2,-4,-26,-42,-16,4
1501623210825995,4,3,-2,0,16,2,17,-2
1501623210842006,-7,-2,-2,-1,-14,-9,13,3
1501623210842006,4,-1,4,3,4,-3,0,1
1501623210844007,-11,-2,-4,-3,-5,-18,7,-7
1501623210844007,23,2,2,-3,-18,-30,25,2
1501623210856003,-4,0,-1,-1,-6,-11,-11,-3
1501623210856003,3,-1,1,4,41,38,24,9
1501623210865022,-1,1,-4,0,14,44,-6,3
1501623210865022,1,-1,3,1,-13,13,-6,-4
1501623210879032,-1,-2,0,2,11,-24,-1,-5
1501623210879032,2,0,-1,-4,-13,-9,4,7
1501623210886037,8,2,-3,-1,0,60,19,10
1501623210886037,-3,0,-7,-4,-6,-4,-59,-5
1501623210902048,2,-2,1,2,1,54,14,0
1501623210902048,-8,-2,0,0,-11,-7,-1,2
1501623210904050,2,1,0,-2,-3,-11,24,4
1501623210904050,-5,0,-1,6,36,-10,-12,-5
1501623210916060,8,-1,-5,-5,-12,14,-3,4
1501623210916060,1,1,0,5,-8,-25,4,-1
1501623210925065,-1,0,-1,-1,-9,-32,-17,-9
1501623210925065,2,1,-2,-5,-8,17,16,8
1501623210939061,-12,-2,-5,-6,-2,-14,-2,-5
1501623210939061,-6,-4,0,3,16,-21,0,-2
1501623210946080,-2,-5,-2,0,-4,-40,-24,-5
1501623210946080,-6,-5,-3,-5,-6,-5,-5,-13
1501623210962091,-6,-3,-5,-3,-2,17,19,8
1501623210962091,-2,1,-4,-8,-28,-6,-43,-10
1501623210964092,-10,-6,2,4,6,4,20,-4
1501623210964092,-2,2,-1,0,-2,22,16,-3
1501623210975100,-5,0,-1,-2,19,32,-30,-5
1501623210975100,1,-2,-4,-4,-18,10,47,2
1501623210985107,-6,-1,-3,-5,-3,-14,-20,-4
1501623210985107,6,-2,4,5,-6,-20,14,4
1501623210999117,-7,-2,2,0,3,-19,0,12
1501623210999117,7,-1,-2,-1,11,109,14,-2
1501623211006108,-9,-5,-3,-5,-10,-39,-10,-10
1501623211006108,-4,2,0,-2,-10,-21,19,2
1501623211022133,0,-1,-1,0,-13,-44,-55,-14
1501623211022133,-4,0,-2,0,6,-8,1,0
1501623211023119,3,2,0,-2,-4,-24,-22,-3
1501623211023119,-10,-4,-3,-4,2,20,13,0
1501623211035142,6,4,-1,2,-5,-23,16,5
1501623211035142,-6,0,2,1,7,2,-15,-15
1501623211044148,7,-1,1,3,11,31,17,5
1501623211044148,12,6,-1,-1,-19,-24,-22,17
1501623211067165,-7,-4,-3,3,27,69,30,-11
1501623211067165,-2,-4,-3,-5,-33,-24,-31,-3
1501623211068165,5,-2,1,2,5,18,8,11
1501623211068165,-2,-3,1,-2,4,9,4,0
1501623211082175,8,7,-1,-3,-12,5,9,-4
1501623211082175,-1,2,1,0,13,-1,-11,-6
1501623211083176,-9,-5,-1,-1,-2,23,-13,-5
1501623211083176,-1,-4,-4,-4,-12,-50,11,-4
1501623211095169,1,-2,-1,-5,-27,-35,0,2
1501623211095169,-3,2,3,5,24,42,1,-4
1501623211104176,1,1,0,-5,-4,-19,-6,-5
1501623211104176,-8,-5,-6,0,-3,71,24,0
1501623211119202,-1,0,0,-1,8,-17,20,4
1501623211119202,0,-2,-1,2,17,-12,-5,-7
1501623211125206,-3,0,-3,0,5,34,29,6
1501623211125206,-2,2,0,-1,-9,7,-19,-2
1501623211141217,3,-2,-1,-1,17,-3,-18,-2
1501623211141217,11,0,-2,0,-19,29,53,8
1501623211148222,-19,-3,0,-1,-7,-46,-13,-19
1501623211148222,-8,-5,-6,-2,19,-33,-10,-4
1501623211155227,3,-3,-2,-4,-8,13,28,6
1501623211155227,-4,-2,-3,-4,-22,-70,-18,-4
1501623211164233,2,-1,-1,4,20,35,19,8
1501623211164233,4,-3,1,-4,-14,19,14,-10
1501623211179244,-5,-1,0,0,-13,-61,-33,0
1501623211179244,7,-2,-5,3,54,50,0,11
1501623211185248,5,-2,-3,-4,-18,27,0,-7
1501623211185248,-5,2,3,-1,-5,-1,-23,4
1501623211201260,9,3,1,-2,-10,-29,2,-6
1501623211201260,-8,-3,-1,2,-4,-35,8,-4
1501623211208260,3,4,-1,-1,6,5,-2,4
1501623211208260,-3,1,-2,-2,-31,-31,0,-3
1501623211215269,-14,-5,-3,1,44,17,-26,-4
1501623211215269,16,3,4,0,-11,23,9,-3
1501623211224275,10,1,-1,-3,-1,-1,-28,4
1501623211224275,-18,-5,-2,-2,-8,3,-22,-12
1501623211239271,10,0,-2,-4,-27,-31,15,12
1501623211239271,-12,-1,-4,-3,18,4,-12,-4
1501623211245290,2,3,2,1,-11,-16,-1,-4
1501623211245290,14,3,2,4,48,-2,35,5
1501623211261302,1,-1,0,-1,-10,5,-5,-7
1501623211261302,-10,3,-4,-5,-15,13,8,0
1501623211268307,0,-3,-4,-3,-12,-6,30,8
1501623211268307,3,-1,-1,0,13,3,-1,-4
1501623211284318,-1,-1,-3,0,-22,-22,9,12
1501623211284318,13,5,4,2,15,-3,-8,-10
1501623211286319,-4,-3,-1,-5,-22,-31,-7,5
1501623211286319,-6,-2,-4,0,5,-14,-29,-2
1501623211298328,3,-1,-1,2,13,98,9,3
1501623211298328,-10,-3,-1,-5,-7,8,-8,-6
1501623211305333,11,6,3,4,-12,-34,-1,-3
1501623211305333,-9,0,3,8,55,37,-2,0
1501623211321344,-3,-4,0,-6,-26,-16,12,-4
1501623211321344,-1,0,-6,-3,-19,-60,-16,0
1501623211328349,0,-3,-3,-2,10,59,15,-2
1501623211328349,-8,-2,0,-3,-15,9,-11,-4
1501623211344360,1,6,1,8,13,46,25,-2
1501623211344360,3,0,-1,0,-3,5,-3,6
1501623211346362,-5,-3,-4,-5,0,-9,3,11
1501623211346362,2,-3,-3,-2,-14,16,-14,-3
1501623211358371,-1,-6,-6,-4,1,-22,37,-4
1501623211358371,-5,-6,0,-3,-7,16,-16,6
1501623211365375,-5,1,-1,4,23,-20,-38,-8
1501623211365375,14,-1,4,1,-8,-52,19,1
1501623211381386,3,4,4,0,-15,-17,-32,-4
1501623211381386,-9,-4,-5,-4,-1,-4,20,4
1501623211388391,-12,-3,-1,3,17,-19,-11,-4
1501623211388391,4,-1,-1,-2,-11,9,-9,-2
1501623211404402,-16,-4,-3,-2,6,-18,-16,-11
1501623211404402,7,3,2,-1,-7,-5,0,7
1501623211406406,-2,-3,0,-1,-2,-22,5,-2
1501623211406406,-2,-2,-1,-5,-30,-41,-15,-8
1501623211418412,4,1,2,3,59,64,3,5
1501623211418412,-12,-10,-6,-6,-16,-10,-17,-17
1501623211425417,5,3,1,0,-8,13,9,6
1501623211425417,8,5,0,1,16,9,50,5
1501623211441429,-11,1,2,0,-18,-23,-2,11
1501623211441429,-3,3,-2,3,13,-83,0,-1
1501623211448433,-4,-4,2,-1,-3,17,-1,-8
1501623211448433,-2,-3,-5,-6,7,-36,-21,-10
1501623211464445,-4,0,1,4,9,23,-14,6
1501623211464445,6,-1,0,2,8,8,26,-1
1501623211466446,-10,7,5,1,-30,-59,-5,-4
1501623211466446,-2,1,-6,1,-2,-35,7,3
1501623211478455,-4,1,-3,-3,-14,-16,-20,-3
1501623211478455,-7,-5,1,2,21,47,29,0
1501623211485460,16,4,-2,-4,7,92,45,4
1501623211485460,1,2,3,3,3,22,7,1
1501623211501471,-11,-8,-2,-5,0,-15,-16,-15
1501623211501471,2,0,-2,-3,-16,-15,-18,7
1501623211508476,-3,-3,-6,-6,-12,-65,-22,-10
1501623211508476,-5,-3,1,-1,-6,21,5,3
1501623211524487,9,-1,-1,0,18,-23,12,-1
1501623211524487,0,-1,-5,-4,-9,34,-1,-4
1501623211526474,-2,-1,0,0,-3,-7,-22,3
1501623211526474,-10,-2,-1,4,14,32,-22,-23
1501623211538497,6,-6,-9,-12,-28,-1,11,2
1501623211538497,-12,-2,7,1,1,0,5,-6
1501623211545490,-8,-1,-5,-4,-17,5,-24,-9
1501623211545490,3,-1,0,4,3,30,-7,12
1501623211561501,-6,-4,1,-1,4,48,21,-3
1501623211561501,-7,-3,1,3,17,-63,-13,-3
1501623211568506,-2,-2,-3,-5,-10,-14,28,2
1501623211568506,2,0,-1,-3,5,7,-30,-6
1501623211584517,-2,2,-2,-1,-4,-6,18,5
1501623211584517,1,4,5,2,-9,45,-15,11
1501623211586518,-3,-2,-4,-3,-18,-4,22,-5
1501623211586518,1,3,5,4,10,1,13,9
1501623211598539,-5,-2,-3,2,2,-14,-17,-17
1501623211598539,3,-1,-2,-8,-28,-12,5,-12
1501623211605544,-1,5,0,4,17,26,11,20
1501623211605544,1,-5,-1,-4,-14,-56,2,2
1501623211621556,-2,-4,1,2,-7,-9,-28,-11
1501623211621556,5,-3,-4,-3,13,-26,-17,0
1501623211628560,4,0,1,-2,-7,1,4,-4
1501623211628560,-8,0,-3,-1,11,15,5,-2
1501623211644572,2,1,3,1,-20,-27,-16,5
1501623211644572,0,-4,-5,-2,35,6,-5,-1
1501623211646560,-5,-2,-3,-1,-10,26,9,-14
1501623211646560,5,-6,-3,-6,-5,-2,14,14
1501623211658581,-7,-10,0,5,22,68,-16,1
1501623211658581,-9,3,-2,-2,-17,9,-2,-1
1501623211665587,2,0,-2,-3,11,58,2,-3
1501623211665587,-1,4,1,3,6,20,-11,-8
1501623211681598,8,1,-2,-6,-15,-21,16,6
1501623211681598,3,0,-2,1,-6,29,-3,4
1501623211688603,-3,-4,0,1,14,-57,-3,2
1501623211688603,-4,-2,1,-3,-19,-58,-8,-11
1501623211704614,4,2,-4,-2,14,84,-35,2
1501623211704614,5,2,0,1,15,44,6,-2
1501623211706601,7,-2,4,2,-9,-14,-16,5
1501623211706601,20,2,-7,-1,5,7,17,10
1501623211718624,-8,1,-2,-5,-5,-37,-6,-12
1501623211718624,3,-1,-1,-5,-20,-9,21,8
1501623211725629,-14,-9,-5,-7,-30,-52,-6,-11
1501623211725629,-15,-5,1,6,40,21,-13,-4
1501623211741640,12,9,0,-3,-19,-39,-7,-7
1501623211741640,-2,-3,-1,-1,-20,-2,19,7
1501623211747644,2,1,-2,-4,-9,-5,-37,-3
1501623211747644,-1,2,0,1,0,-13,10,11
1501623211764656,2,1,3,4,2,3,-1,3
1501623211764656,-8,-5,-6,-9,-44,-36,-26,-10
1501623211765657,9,-2,3,9,57,-8,-21,2
1501623211765657,-5,-4,-3,-7,-23,17,-7,-10
1501623211777666,1,-3,-4,1,6,7,13,13
1501623211777666,11,1,5,3,-1,-86,-56,-1
1501623211787675,-1,-1,-1,-1,-12,-38,13,-3
1501623211787675,-5,2,-5,-4,-19,-40,36,2
1501623211801683,-2,-1,-3,0,10,-33,13,-10
1501623211801683,-2,1,-1,0,14,49,33,-1
1501623211807686,3,-2,-2,0,-2,19,26,6
1501623211807686,3,0,-1,-5,-18,5,44,0
1501623211824699,-1,-2,7,5,-7,-32,6,5
1501623211824699,-6,1,-1,1,0,-40,14,-6
1501623211825700,4,8,7,8,42,11,-10,7
1501623211825700,0,-8,-6,-8,-25,80,-27,0
1501623211837693,3,1,-1,0,24,83,22,16
1501623211837693,0,3,0,-1,5,17,-28,-9
1501623211846715,0,-3,0,-1,-8,3,3,-1
1501623211846715,-5,2,-2,1,4,-11,-21,-6
1501623211861725,-3,-3,0,-4,-8,-72,-14,-2
1501623211861725,2,-1,-4,0,3,22,11,-1
1501623211867729,0,2,0,2,15,42,9,2
1501623211867729,-3,3,-2,-1,1,-19,4,11
1501623211884727,-4,-4,-1,-3,10,14,-20,-18
1501623211884727,-4,2,-1,0,-14,40,8,2
1501623211885742,2,-4,-7,-8,-18,40,30,-5
1501623211885742,-5,-2,6,6,16,6,-6,5
1501623211897738,-10,-3,-7,-4,3,-5,-1,8
1501623211897738,14,-3,1,-1,-8,-86,-26,2
1501623211906744,-9,0,-1,0,-8,-3,-22,-12
1501623211906744,8,2,3,-2,-1,49,-27,-4
1501623211921755,5,3,2,3,-8,-25,3,-1
1501623211921755,2,0,-1,0,4,-3,-4,-3
1501623211927771,-8,-5,-1,-4,-6,-17,2,-9
1501623211927771,1,4,1,1,-1,41,23,7
1501623211944783,0,-3,-5,-6,-7,-70,-4,-6
1501623211944783,-8,-10,-1,1,5,1,-13,-3
1501623211945784,0,0,0,-2,2,-24,19,-8
1501623211945784,-8,-4,1,-2,-10,-15,-6,-12
1501623211957792,-4,5,1,1,15,34,-16,-4
1501623211957792,-8,0,-2,-5,-3,9,17,5
1501623211966799,-2,-4,-5,0,-3,-23,-54,-3
1501623211966799,11,-1,-1,-3,-2,-79,-10,-4
1501623211981809,-4,-2,1,-1,-16,-31,-15,-9
1501623211981809,0,2,-2,2,3,35,51,11
1501623211987814,0,0,-3,-4,-12,-3,-28,-2
1501623211987814,-5,-3,-6,0,35,-2,-39,-2
1501623212004826,11,-1,0,-2,-5,-35,-2,-7
1501623212004826,-1,5,3,1,-3,24,-2,3
1501623212005826,-8,-2,-5,-6,-10,-18,-7,-13
1501623212005826,11,5,4,4,15,10,13,22
1501623212017835,2,-2,2,-1,-8,28,9,0
1501623212017835,-3,-3,-3,2,13,-45,1,-7
1501623212026841,3,-1,-2,-4,-8,14,-22,4
1501623212026841,-4,-4,-4,-7,-30,-51,0,-21
1501623212040851,-8,-1,-2,-6,5,38,4,7
1501623212040851,12,5,3,3,14,20,14,8
1501623212047856,-4,-3,-4,-3,-22,-28,-3,0
1501623212047856,6,-3,1,2,34,101,32,2
1501623212063867,-8,-3,-5,-2,-6,-27,-27,-11
1501623212063867,-7,-7,-3,-1,0,24,-20,0
1501623212070872,8,7,2,0,2,41,-13,2
1501623212070872,-3,-2,0,-3,-8,-50,-10,-5
1501623212077864,-2,-6,2,5,14,20,-16,0
1501623212077864,8,4,-4,-6,-10,17,14,-5
1501623212086871,1,2,5,4,12,60,13,7
1501623212086871,-5,-3,-3,0,-14,-54,37,1
1501623212100893,0,-1,-2,-6,-29,-39,-26,-3
1501623212100893,-11,-6,4,3,11,-11,25,-7
1501623212107884,2,-2,-3,-2,-1,-17,-1,2
1501623212107884,-4,5,1,2,6,5,10,3
1501623212123895,-1,-1,-1,0,-2,-19,45,4
1501623212123895,-4,-4,-3,-7,-21,-7,-34,-11
1501623212130902,-5,-5,-7,-8,-14,25,16,-3
1501623212130902,0,-2,0,6,14,8,-22,-3
1501623212137919,-4,1,-2,-2,-2,-11,29,16
1501623212137919,6,7,-2,-5,-4,37,-26,-15
1501623212146911,-2,-5,5,8,25,-48,15,15
1501623212146911,-4,1,-5,-8,-30,-1,-7,2
1501623212160938,4,-4,-1,0,-4,13,17,5
1501623212160938,-5,-5,-2,0,3,-29,12,-5
1501623212167942,0,-2,0,-1,-8,-46,-3,3
1501623212167942,6,3,2,4,13,7,-2,1
1501623212183953,-6,5,-1,1,-21,17,-29,-15
1501623212183953,1,-1,-2,1,27,-34,9,11
1501623212190958,18,4,3,4,5,-18,20,-1
1501623212190958,-12,-4,-5,-4,-16,36,-8,-7
1501623212197962,0,-2,2,3,8,-87,-19,-8
1501623212197962,-3,-1,-2,-7,-10,-5,4,8
1501623212206953,-9,-1,0,3,14,97,-39,-7
1501623212206953,5,-5,1,0,-1,27,-12,-8
1501623212220978,4,4,-3,-5,-8,13,24,-3
1501623212220978,-6,-1,0,0,15,-11,-6,5
