timestamp,emg1,emg2,emg3,emg4,emg5,emg6,emg7,emg8
1501624067278903,1,1,2,4,15,-4,-6,-6
1501624067278903,0,0,1,-3,-1,3,0,-1
1501624067278903,1,1,-2,-1,-6,2,2,-3
1501624067278903,0,0,-2,-3,-8,-22,-3,0
1501624067282928,-2,2,-3,2,4,35,6,0
1501624067282928,-2,-4,-2,-5,1,-1,-3,-5
1501624067283908,-2,0,0,1,-8,-7,-2,2
1501624067283908,-1,0,-1,1,4,-22,-2,-1
1501624067290912,0,0,2,-1,-11,-14,-8,2
1501624067290912,-1,3,0,3,8,11,-3,-5
1501624067297917,-2,-2,-2,-1,4,12,7,-7
1501624067297917,4,-1,1,-4,-31,23,-1,3
1501624067312944,-1,-5,0,2,9,-3,-4,-2
1501624067312944,2,3,3,3,2,29,4,0
1501624067318983,-2,1,-1,-1,-5,-59,-9,-5
1501624067318983,-2,1,-2,1,29,52,13,-1
1501624067330941,-2,-5,-2,-4,-16,-7,-4,-3
1501624067330941,-1,-1,-2,-1,1,3,-1,8
1501624067342984,0,2,-2,-3,-11,-12,-4,1
1501624067342984,-2,2,0,4,8,-4,1,-3
1501624067350976,-3,-1,-1,-6,-6,-21,0,1
1501624067350976,-1,-4,0,2,9,-32,-2,-6
1501624067396981,0,0,-2,0,6,-6,2,0
1501624067396981,-4,0,-4,-13,-34,20,2,1
1501624067397991,1,-2,1,3,5,15,-4,-1
1501624067397991,1,0,-2,2,-1,-9,0,0
1501624067398982,1,0,-2,-1,5,-6,-3,-1
1501624067398982,0,0,2,6,4,-26,-4,0
1501624067401011,-3,2,-3,-4,-11,43,5,-1
1501624067401011,0,-3,2,1,3,19,-3,0
1501624067410013,-4,1,-4,-2,-13,-9,2,-6
1501624067410013,2,-1,0,2,15,17,7,3
1501624067416051,1,-1,-2,-2,-1,-17,2,0
1501624067416051,0,-2,0,3,20,23,-1,-3
1501624067425001,0,0,0,-6,-17,-16,-2,-2
1501624067425001,0,-2,-1,2,9,-2,0,0
1501624067439072,-1,0,0,2,0,-22,-4,3
1501624067439072,-3,-5,-2,-10,-10,23,7,-5
1501624067448022,0,0,1,4,5,-3,-1,6
1501624067448022,-1,1,-1,0,-2,-15,-4,-1
1501624067454083,-3,2,-4,-1,2,-33,-6,-2
1501624067454083,0,0,2,2,6,-14,-9,-2
1501624067470033,-3,0,-2,-2,-13,20,6,0
1501624067470033,2,1,4,7,12,7,-5,-1
1501624067476097,-1,-4,-1,-5,-7,13,0,1
1501624067476097,0,3,-1,0,0,-61,0,3
1501624067485043,-2,-5,1,4,38,61,1,-2
1501624067485043,0,1,-3,-4,-7,-4,2,1
1501624067499113,2,0,3,1,-6,-12,1,-5
1501624067499113,1,-2,-2,0,6,-11,5,11
1501624067508068,2,0,0,-6,-8,-9,-3,1
1501624067508068,-3,0,-3,-3,-11,-40,-8,-6
1501624067514064,-2,-4,1,0,8,17,0,-3
1501624067514064,-1,0,-2,-5,-14,5,0,-7
1501624067530080,0,3,0,4,3,-20,-1,0
1501624067530080,-2,-2,-3,-3,-4,3,-6,-8
1501624067536083,-4,2,-4,-2,-7,-51,-8,0
1501624067536083,-1,-2,-2,-1,4,52,2,0
1501624067545114,0,-1,-3,-4,-29,-55,-8,0
1501624067545114,-3,-4,-2,-3,7,17,0,-1
1501624067559156,-3,-3,-1,0,-2,-15,7,1
1501624067559156,-1,-1,1,0,1,-7,-2,1
1501624067568130,-1,-3,0,-3,-3,-7,-5,-1
1501624067568130,1,1,-2,4,-3,-3,0,-4
1501624067574166,-1,-4,-3,-5,8,49,3,-4
1501624067574166,0,0,0,0,-2,-36,1,-2
1501624067590122,-1,-2,2,0,-4,22,2,-4
1501624067590122,1,1,-1,1,6,23,-4,3
1501624067596127,-1,-1,-2,-2,-8,-31,-3,-1
1501624067596127,-2,1,-2,1,7,82,5,-10
1501624067605132,-2,-1,0,1,-6,-25,-4,-2
1501624067605132,0,-2,0,1,7,15,11,2
1501624067619204,-2,1,0,0,-3,-17,-15,-4
1501624067619204,-6,0,-2,-2,-4,-7,-6,-1
1501624067628173,-3,2,1,0,0,-19,-7,-7
1501624067628173,3,-2,0,1,2,8,6,7
1501624067634207,-1,-1,-3,-4,-13,2,5,2
1501624067634207,0,-1,-1,-3,-11,-3,-6,-2
1501624067657225,-1,-1,0,-1,5,14,3,0
1501624067657225,-5,-2,-3,-8,-19,-59,-8,-4
1501624067658193,3,0,4,5,19,33,11,1
1501624067658193,0,-1,-1,1,-1,-13,1,-2
1501624067665199,1,-3,0,3,31,41,1,9
1501624067665199,-2,1,-2,-4,-21,11,0,-2
1501624067679185,2,4,0,1,-11,-1,7,2
1501624067679185,-1,0,-3,0,3,7,5,1
1501624067688215,-1,-1,-1,-1,-5,-33,-3,-1
1501624067688215,-2,-1,0,1,7,5,1,-2
1501624067694351,0,0,-1,1,13,16,4,1
1501624067694351,1,-4,-3,-7,-25,4,0,0
1501624067710348,-1,-1,-2,-2,-5,-17,-6,-3
1501624067710348,-3,-1,0,-1,12,-7,-12,-4
1501624067716379,1,0,0,1,-5,19,15,5
1501624067716379,-2,2,1,3,2,-17,-3,-2
1501624067731357,-1,-4,-2,-3,-9,-33,-3,1
1501624067731357,0,0,1,3,-1,-19,-11,-4
1501624067739367,0,0,-1,-1,7,32,-3,4
1501624067739367,0,-4,1,1,-2,-13,-5,0
1501624067748340,-3,1,-1,-1,-9,-31,3,-1
1501624067748340,1,-1,0,1,23,95,7,-3
1501624067761381,0,-3,0,1,7,-60,-12,-4
1501624067761381,-1,-1,-4,-4,2,8,-2,-3
1501624067770356,-2,1,0,3,15,15,-5,-2
1501624067770356,0,0,-2,-1,10,31,6,1
1501624067776389,-2,-2,0,1,1,-9,-6,-6
1501624067776389,0,-1,-1,-1,-4,-7,-3,2
1501624067791399,-1,-1,-1,1,-8,-44,-5,-5
1501624067791399,-4,-1,-5,-3,-1,26,1,-1
1501624067799405,1,-1,2,-2,-7,11,-11,-4
1501624067799405,1,-2,-1,1,1,-25,-6,-1
1501624067807443,-3,0,-1,-2,-4,42,0,-4
1501624067807443,2,0,3,2,-1,-44,3,-2
1501624067821453,-4,-1,-6,-7,-14,-1,-3,3
1501624067821453,-4,0,-1,-1,-6,-42,-11,-5
1501624067830408,3,-3,3,3,18,60,7,1
1501624067830408,0,-4,1,-6,-15,-27,-2,-3
1501624067836465,-2,-2,-2,0,-4,-15,-2,-3
1501624067836465,-1,0,0,2,12,49,1,-1
1501624067852475,-1,-2,-4,-5,-22,-22,-4,-3
1501624067852475,-3,0,0,-1,-22,-14,-2,-1
1501624067859449,-2,-2,0,4,26,-10,-7,2
1501624067859449,0,4,1,1,4,50,10,2
1501624067867485,3,5,-1,2,6,-11,-2,1
1501624067867485,-1,-1,-1,-2,-7,-14,3,0
1501624067881492,-1,-1,-5,-4,-11,-7,3,-2
1501624067881492,-3,-3,-2,0,6,-10,2,0
1501624067890472,-3,-2,-3,-4,-2,-20,-3,-3
1501624067890472,1,0,3,6,4,-45,-3,1
1501624067896473,-1,-1,0,-7,-5,28,4,-2
1501624067896473,-2,-3,-2,-3,-7,-33,-8,-2
1501624067912485,-3,-4,-2,-1,7,-3,-2,4
1501624067912485,-1,0,-3,-4,-3,24,4,2
1501624067918523,-3,-2,0,0,-5,-22,-6,-6
1501624067918523,-2,4,1,3,7,48,5,-2
1501624067927525,-1,-5,0,-3,3,-6,-8,-2
1501624067927525,-2,-2,-3,-5,-11,-2,-1,-3
1501624067941537,1,1,0,1,-4,-11,-2,-1
1501624067941537,-1,2,-3,-4,-13,-67,-9,-11
1501624067950484,-6,0,-1,-1,5,27,4,-4
1501624067950484,5,2,3,7,22,20,14,10
1501624067956550,1,-1,1,-4,-22,-31,-4,-3
1501624067956550,-2,-2,-3,-2,-5,-38,-4,-3
1501624067972559,0,-1,-1,-4,-13,-6,-5,-2
1501624067972559,-3,-4,-3,-1,19,19,-4,-5
1501624067978506,2,-2,1,0,-3,17,3,1
1501624067978506,1,-3,1,-3,0,-33,-4,-3
1501624067987570,1,-2,0,0,-4,41,6,2
1501624067987570,-3,2,-1,2,8,-15,-10,-4
1501624068001582,-3,-3,-2,-1,7,9,0,-1
1501624068001582,1,-3,-2,-1,-6,3,-3,-1
1501624068010557,1,2,-2,-1,1,-30,5,2
1501624068010557,-3,-1,-3,-6,-28,-63,-12,-3
1501624068016591,1,1,0,3,18,1,-9,4
1501624068016591,-4,-3,-3,-2,5,50,1,-1
1501624068032576,2,1,2,2,-1,-22,5,5
1501624068032576,-2,-1,-4,-3,-7,-5,1,-4
1501624068038546,-2,-2,-2,-1,4,1,-5,-4
1501624068038546,0,-1,1,2,18,-7,2,0
1501624068047582,0,-5,-3,-3,-10,0,-7,-2
1501624068047582,0,-1,0,-6,-12,-10,0,1
1501624068061590,-2,-2,0,2,4,2,4,-2
1501624068061590,1,4,1,3,5,-25,-1,3
1501624068070599,-1,0,-2,-5,-6,38,5,-4
1501624068070599,0,-1,1,4,-3,-23,-13,0
1501624068076632,-1,0,-1,-3,-1,-1,-3,-3
1501624068076632,0,-1,-1,-2,-2,31,7,-2
1501624068092615,2,-1,-1,1,9,18,2,-5
1501624068092615,0,0,0,-1,4,4,-4,-3
1501624068098616,0,-1,-3,-3,-12,26,7,4
1501624068098616,-2,-2,0,5,7,-7,0,3
1501624068107626,-2,0,-1,-1,-6,-6,-1,-4
1501624068107626,-3,2,0,4,14,-33,-7,-8
1501624068121633,0,-6,0,-1,-2,23,5,1
1501624068121633,-1,2,-1,-5,-14,-25,-2,-1
1501624068130618,-2,-1,-2,0,5,10,-9,-2
1501624068130618,0,-3,-2,1,-3,-14,9,-1
1501624068136643,0,0,-1,-3,5,21,0,1
1501624068136643,-1,-2,0,1,-11,-26,-2,0
1501624068152657,-1,-1,-1,-3,3,21,1,0
1501624068152657,-2,1,-1,-4,-5,-35,-9,-6
1501624068158690,-3,1,-1,-2,1,28,2,-2
1501624068158690,1,-2,1,-1,-5,1,5,2
1501624068167667,0,0,-1,3,8,8,3,4
1501624068167667,-3,-3,0,-8,-14,-15,-1,-1
1501624068181675,0,-1,-1,3,-4,-15,-6,-4
1501624068181675,-1,-3,0,0,10,18,-4,-1
1501624068190662,-1,-1,-1,-1,-8,-14,4,1
1501624068190662,0,0,-2,-1,4,39,2,5
1501624068196657,-2,-2,-1,3,5,-10,-8,-7
1501624068196657,1,-4,1,2,1,-5,1,-1
1501624068213673,2,0,-1,-9,-23,4,0,5
1501624068213673,1,-1,1,-1,-4,9,0,2
1501624068218734,-1,0,1,3,16,-12,-5,-7
1501624068218734,0,0,-1,-2,2,3,3,3
1501624068227709,-1,2,-1,-2,-7,19,10,3
1501624068227709,0,-3,-1,-1,-7,-14,-10,-8
1501624068241751,2,2,-2,-4,-22,-27,7,0
1501624068241751,-2,-1,-1,1,19,61,-9,-3
1501624068250705,-4,-1,1,5,5,25,3,-3
1501624068250705,0,2,1,1,10,29,10,5
1501624068256737,-1,-1,-5,-3,-12,-31,2,2
1501624068256737,0,2,-3,-4,-20,-41,-10,-2
1501624068272744,1,-5,0,-2,0,-11,-3,-3
1501624068272744,2,-1,1,3,9,23,3,3
1501624068278720,-2,-2,-2,-3,0,-1,-8,-3
1501624068278720,0,3,0,-1,-13,-19,-1,2
1501624068287754,-3,0,-2,-1,22,0,-11,-6
1501624068287754,-2,-2,1,-1,-1,29,4,-1
1501624068301754,1,1,1,-1,-8,-20,-8,1
1501624068301754,-5,-3,-5,-2,-7,-7,-5,-4
1501624068310770,3,0,-1,-1,5,40,6,1
1501624068310770,1,-5,-3,-1,-3,-16,-1,0
1501624068316805,-2,0,1,5,10,15,0,-3
1501624068316805,-1,2,0,-1,5,23,2,0
1501624068332783,-3,-2,-1,-2,-8,-45,-7,-5
1501624068332783,-3,-1,-2,-4,-4,10,-1,6
1501624068338820,-3,-1,1,2,3,29,-1,-6
1501624068338820,2,-3,-2,-2,-4,-25,9,5
1501624068347792,-2,-1,-2,1,-1,-32,-6,-5
1501624068347792,0,-2,-2,-7,-16,28,3,-4
1501624068361798,-2,0,-2,-5,-3,-24,1,3
1501624068361798,0,-2,-1,-4,-8,23,-1,0
1501624068370810,-1,1,0,2,1,-38,-5,0
1501624068370810,-1,1,-1,3,4,-19,-7,-5
1501624068383932,-1,-3,-2,-6,4,24,2,2
1501624068383932,2,1,-1,-2,-8,-32,-6,-2
1501624068392915,-1,-1,2,5,14,49,3,0
1501624068392915,-2,0,0,-5,-19,-45,-6,-5
1501624068407978,-1,1,0,5,11,4,9,3
1501624068407978,0,1,2,6,7,12,9,1
1501624068408947,-2,-5,-4,-8,-1,3,-5,-4
1501624068408947,0,1,-2,2,1,-5,-2,0
1501624068421941,0,0,-3,-3,-6,-27,-8,3
1501624068421941,-1,-1,0,1,5,4,5,6
1501624068430939,-1,1,-1,3,18,8,-1,-2
1501624068430939,-2,-2,-1,-1,6,28,5,0
1501624068444002,0,1,1,1,-6,17,0,-4
1501624068444002,-2,2,-1,-3,-11,-37,1,-9
1501624068452957,1,-1,-3,-1,-12,-39,-5,1
1501624068452957,-1,1,0,2,-1,9,-2,-2
1501624068468020,0,-2,1,4,21,34,5,-1
1501624068468020,-2,-3,-2,-3,-4,14,-1,-5
1501624068468990,3,3,-1,-3,-14,-1,2,3
1501624068468990,-2,1,-1,0,-10,-2,-1,-3
1501624068481975,1,1,1,3,0,-4,-4,-3
1501624068481975,-2,-5,-2,-4,1,-29,-1,-3
1501624068490036,-5,-3,-1,-5,-8,0,-6,-5
1501624068490036,-1,-6,-3,-3,6,38,3,4
1501624068504140,-1,-2,-1,-1,-4,-15,-10,-5
1501624068504140,0,-2,-5,-4,-3,-10,-10,2
1501624068513086,-3,0,1,4,7,15,3,-1
1501624068513086,-1,-2,-3,-4,-7,-43,0,-1
1501624068528124,-2,2,0,0,3,-2,-6,-4
1501624068528124,-1,-2,0,1,-1,-19,-5,0
1501624068529097,1,-4,-1,-2,-5,19,11,2
1501624068529097,-3,-3,-2,0,19,61,-1,-4
1501624068541167,3,2,0,3,-12,-22,5,7
1501624068541167,0,-1,-1,-2,-2,11,-1,2
1501624068550144,0,1,-1,-2,-6,-23,-5,1
1501624068550144,0,2,2,1,3,26,11,0
1501624068564130,0,-1,-2,-2,-2,-27,-2,-5
1501624068564130,-1,0,-2,-4,-7,6,-9,-5
1501624068573128,3,0,0,3,-12,-33,9,5
1501624068573128,-1,0,0,6,46,69,-1,-1
1501624068588200,-2,-2,-2,-3,-9,-22,-3,-3
1501624068588200,-2,-2,-3,-3,-5,5,-8,-5
1501624068589169,-1,-2,0,-1,0,-14,-2,-1
1501624068589169,2,2,0,-3,-6,-25,-6,0
1501624068601209,0,-5,0,-3,6,50,3,6
1501624068601209,0,-2,-2,4,13,-2,-3,0
1501624068610185,-3,-2,-4,-2,-2,42,3,-6
1501624068610185,1,-2,-1,-2,-11,-57,-5,6
1501624068624226,0,-2,0,-2,0,-14,-2,2
1501624068624226,1,1,-1,1,0,-10,0,-4
1501624068633171,-1,-1,-1,-3,3,49,-3,-2
1501624068633171,0,1,-1,-1,-8,-32,-8,-6
1501624068648188,-2,-4,-2,-2,0,20,6,-2
1501624068648188,2,2,1,0,-3,-6,4,3
1501624068649188,0,2,2,7,11,11,5,3
1501624068649188,-2,0,-3,-2,-4,-26,-1,0
1501624068661210,1,0,-1,-2,-14,-4,-3,1
1501624068661210,-1,-1,-1,-5,-6,14,10,-4
1501624068676230,-1,-2,-1,-2,3,-12,-11,-7
1501624068676230,1,-2,0,-3,-11,-14,8,1
1501624068684236,-1,2,0,2,-3,7,9,1
1501624068684236,-2,-3,-4,-1,15,30,6,1
1501624068693241,1,-4,0,-1,-6,-51,-8,0
1501624068693241,-1,-1,-1,-1,0,4,-2,-1
1501624068708253,-1,-2,-2,-3,-6,-28,-10,-6
1501624068708253,1,0,0,-2,-4,-6,1,4
1501624068709228,-1,-1,-1,-5,-10,-20,1,0
1501624068709228,-3,-4,-2,0,0,-1,-3,-1
1501624068721262,1,0,0,-2,9,29,7,3
1501624068721262,-3,0,-2,-2,-13,-25,-6,-3
1501624068730240,0,-1,-2,-2,-5,17,0,2
1501624068730240,-1,1,1,0,-7,-7,-2,1
1501624068744250,-1,0,-3,-4,-4,-15,2,-1
1501624068744250,0,0,1,1,-4,-36,-5,0
1501624068753255,-1,0,-1,1,8,36,6,0
1501624068753255,2,-3,2,5,3,48,10,3
1501624068768266,-1,-2,-3,-2,-15,-4,-4,1
1501624068768266,-3,-2,-1,-2,5,20,-1,-2
1501624068769272,0,0,-3,-2,-2,-10,-1,-2
1501624068769272,-3,0,-4,-2,0,-24,-7,-6
1501624068781275,-1,-2,0,0,12,23,4,-1
1501624068781275,-2,-2,1,1,-3,39,1,0
1501624068790283,-1,-1,-2,1,16,28,5,2
1501624068790283,0,-2,-4,-3,-14,-8,-2,-3
1501624068804292,0,0,0,0,-4,-23,3,2
1501624068804292,-3,0,-1,-2,-2,13,-2,-3
1501624068813299,0,2,0,6,12,-15,5,4
1501624068813299,1,-2,-2,-7,-1,2,3,0
1501624068828317,-2,2,-2,4,8,-23,-9,-3
1501624068828317,1,-2,1,-4,-1,45,14,7
1501624068829310,-3,-1,-3,-8,-11,-10,-5,0
1501624068829310,-2,-1,-3,-2,-9,-32,0,-1
1501624068841318,0,-1,2,1,-2,-8,-4,-1
1501624068841318,-2,-1,-4,-1,5,3,-3,2
1501624068850324,-2,-2,-1,-3,-23,-45,-4,-8
1501624068850324,1,0,2,0,13,63,4,-2
1501624068864334,-1,-3,-4,-3,-6,5,0,-1
1501624068864334,1,-1,1,1,-16,-4,-1,-1
1501624068873340,-4,-1,-3,1,3,-1,-6,-6
1501624068873340,1,0,2,0,2,-51,-4,-2
1501624068887379,-2,0,-1,-1,8,45,8,1
1501624068887379,-1,-1,-2,-1,-4,-27,-8,-3
1501624068894371,-1,0,-1,-1,14,30,-2,2
1501624068894371,-1,-3,-1,0,0,-19,-6,-4
1501624068901419,0,-2,1,4,20,14,-4,-1
1501624068901419,-2,0,-3,-9,-17,-17,-2,-1
1501624068910397,3,-1,1,2,-4,-28,-1,3
1501624068910397,-4,0,-2,-3,-9,-14,-5,-2
1501624068924408,0,-3,-1,-3,-5,1,4,1
1501624068924408,0,0,1,5,11,13,-1,-3
1501624068933384,1,-1,-2,0,-7,-17,-3,-1
1501624068933384,-1,-2,-1,1,-2,4,-6,-1
1501624068947397,0,2,-1,-3,-14,-14,-1,-1
1501624068947397,-2,0,-2,-1,6,3,-2,-2
1501624068954428,0,-1,-4,-2,-1,36,12,3
1501624068954428,0,2,0,1,-4,-15,0,-1
1501624068961546,0,-2,0,-2,0,6,2,1
1501624068961546,0,-1,-1,3,5,-7,0,0
1501624068970552,-1,-3,-1,-3,-4,-6,-6,-1
1501624068970552,-4,-3,-3,-3,-8,13,8,0
1501624068983671,-2,0,0,2,14,3,-3,-3
1501624068983671,1,0,0,-2,2,18,-4,-2
1501624068992680,-2,-1,-1,-3,0,2,0,-3
1501624068992680,-3,2,-2,-2,-9,4,6,2
1501624069007661,-1,-1,-1,-2,-11,-29,0,-1
1501624069007661,1,-1,1,3,12,1,-3,-2
1501624069013732,0,1,3,1,-5,9,-3,-2
1501624069013732,-1,-2,-3,-4,2,20,4,-1
1501624069021732,-2,-1,-4,-2,-4,12,-4,0
1501624069021732,-2,-2,-1,1,-4,-29,-11,-5
1501624069030703,0,1,-2,-2,-19,-3,3,0
1501624069030703,1,0,0,1,3,7,-4,1
1501624069043745,1,-3,-1,-1,-1,2,2,-1
1501624069043745,1,2,-1,0,-6,-14,-1,2
1501624069052723,-2,-1,0,1,3,-20,-8,-4
1501624069052723,1,2,1,1,3,-31,-2,3
1501624069066763,-1,1,0,-1,0,17,2,1
1501624069066763,0,-2,-3,-4,4,27,3,0
1501624069073736,-4,-1,-2,-2,0,0,2,-2
1501624069073736,1,-2,1,1,-4,-10,-8,-5
1501624069081772,1,2,0,2,-4,-24,-3,-1
1501624069081772,-4,-2,0,1,12,-7,5,0
1501624069090749,-1,-2,1,-6,-18,0,2,2
1501624069090749,-1,-2,-1,-1,12,17,0,-4
1501624069103788,-1,0,-1,-3,-10,-17,-5,-3
1501624069103788,1,-2,-1,1,5,8,3,0
1501624069112818,0,-1,-1,4,16,17,-2,2
1501624069112818,-1,-1,-1,0,4,16,1,-1
1501624069126886,-3,-3,-4,-6,-10,-6,-2,-4
1501624069126886,1,0,0,2,-3,-3,2,-3
1501624069133893,-1,-1,-1,1,-2,-20,-1,0
1501624069133893,-1,-2,-2,-5,-15,-22,-1,0
1501624069141883,-1,0,-1,1,30,46,4,6
1501624069141883,-1,-4,1,1,-9,7,1,-2
1501624069150868,-1,-2,-1,3,5,-38,-10,-4
1501624069150868,-2,-3,-2,-5,-3,43,12,2
1501624069163858,-2,1,-1,0,-12,-41,-10,-6
1501624069163858,1,0,1,4,28,28,2,6
1501624069172891,0,-1,-1,-2,6,21,2,-1
1501624069172891,1,2,1,3,0,-23,0,3
1501624069186899,1,-1,1,2,6,14,-3,-2
1501624069186899,-2,0,-3,-2,-2,26,0,-1
1501624069193935,1,0,0,0,6,-30,-5,0
1501624069193935,-1,2,1,-2,-10,-11,0,-1
1501624069209899,-1,0,-3,0,-5,34,2,0
1501624069209899,-2,0,-2,-3,-10,-53,-7,-2
1501624069211888,0,1,-3,-1,-2,-8,-2,-2
1501624069211888,-1,3,1,3,4,13,-3,0
1501624069232966,-3,-4,-1,-2,1,-14,-3,-3
1501624069232966,-1,-1,-2,-8,-15,-13,-1,-2
1501624069233903,-2,-3,-1,0,-12,-6,-5,-1
1501624069233903,0,0,0,1,9,24,-2,-1
1501624069246912,0,1,0,0,-4,-35,-4,2
1501624069246912,2,-1,0,-1,1,27,12,5
1501624069255948,-1,-2,0,-4,-16,-5,-2,-4
1501624069255948,1,-4,0,3,23,2,-6,-1
1501624069269965,0,1,0,-2,-4,7,8,2
1501624069269965,-4,-2,-3,1,-5,-19,-7,-6
1501624069271930,1,-1,-1,0,5,19,6,5
1501624069271930,0,-5,-1,-1,1,-4,-3,-2
1501624069283999,-1,-1,-1,-2,-7,-16,-3,-3
1501624069283999,0,1,-3,-3,-11,-26,-3,-2
1501624069292976,-2,-1,-1,-1,5,0,-2,1
1501624069292976,-5,-1,-2,4,16,59,3,-4
1501624069306956,-1,-2,-2,-3,-1,-27,-11,-3
1501624069306956,-4,1,0,1,-2,-9,-1,2
1501624069314959,0,-2,0,-2,7,38,4,-1
1501624069314959,0,-2,1,4,11,-12,0,-1
1501624069330000,-1,-2,-2,-6,-10,-28,-8,-3
1501624069330000,-2,-1,0,2,-2,35,0,-3
1501624069332001,0,-1,0,2,16,-1,1,5
1501624069332001,0,-1,-1,-2,-14,-37,-2,1
1501624069344012,0,-4,-1,-3,0,17,-1,-3
1501624069344012,2,1,2,1,-3,-9,1,-1
1501624069353017,-2,1,-3,-2,3,-9,-7,-7
1501624069353017,3,-1,0,-1,-5,2,-4,2
1501624069366008,0,-1,0,1,-4,-2,5,3
1501624069366008,-2,-2,-1,-2,-1,4,1,-1
1501624069375063,-2,-4,-1,0,-13,-3,-3,0
1501624069375063,-4,0,-2,-2,-14,-17,-2,-1
1501624069390076,-1,1,-1,1,-2,-20,3,0
1501624069390076,0,0,-2,0,-4,1,-2,-1
1501624069392014,0,-2,-1,-4,-5,-3,-2,-2
1501624069392014,0,-3,-3,-6,-15,-28,1,2
1501624069404083,0,1,1,5,20,52,2,-4
1501624069404083,-1,-5,-4,0,7,1,1,1
1501624069413029,-1,-3,0,-2,-9,-35,-6,-4
1501624069413029,-2,-3,-2,-3,7,29,-4,-3
1501624069426099,-2,-3,0,-2,-11,-39,-10,1
1501624069426099,3,1,-1,-2,3,-7,-6,-2
1501624069435094,1,-1,0,1,-5,-15,-2,-2
1501624069435094,0,2,-1,0,-4,-1,0,-1
1501624069450117,-2,-1,-2,3,15,24,8,1
1501624069450117,-3,-2,-3,-9,-20,-40,-7,-4
1501624069452057,-1,1,-1,0,3,51,7,1
1501624069452057,1,2,-1,-1,-8,-11,8,1
1501624069464066,1,-4,2,-1,-2,-2,-2,0
1501624069464066,0,0,0,1,15,54,4,0
1501624069473073,-1,1,-2,-2,-8,-26,-5,-2
1501624069473073,-1,-1,-2,-2,2,5,-3,-3
1501624069486142,-1,-3,-3,-4,-15,-2,3,-3
1501624069486142,-3,-4,-1,1,6,-16,-3,-2
1501624069495088,0,0,-1,-1,-2,-7,-2,-3
1501624069495088,-1,0,-3,-8,-30,-14,-3,0
1501624069510158,1,1,2,0,-9,-17,-3,3
1501624069510158,-2,-5,0,0,7,8,-5,-2
1501624069512100,1,4,1,2,-3,2,2,5
1501624069512100,-1,0,0,2,9,8,-3,-5
1501624069524170,-4,-1,-6,-6,-6,19,2,-4
1501624069524170,-1,1,1,-4,-16,-13,4,1
1501624069533143,-2,-3,-1,0,6,-8,-9,-7
1501624069533143,1,-1,-2,-1,4,-13,9,7
1501624069546152,0,0,-1,1,10,24,-5,0
1501624069546152,-1,-1,-1,-6,-14,-24,1,-4
1501624069555162,-1,-2,-1,1,10,32,0,-4
1501624069555162,-3,0,0,-1,3,-9,-1,-4
1501624069570170,0,-3,2,1,-2,33,2,1
1501624069570170,0,-1,0,1,6,1,3,2
1501624069572142,-2,0,-3,-1,-2,2,1,2
1501624069572142,-1,0,0,2,3,1,-3,-3
1501624069584155,3,2,0,-1,-1,-14,5,3
1501624069584155,-2,-1,-4,-2,2,7,-8,-5
1501624069593157,-1,-1,-4,-6,-9,4,6,2
1501624069593157,-2,-2,-4,1,-3,6,-11,-5
1501624069606225,-4,-4,-4,-4,-5,-37,6,-3
1501624069606225,3,-1,1,-2,-14,10,4,3
1501624069615173,1,0,1,-1,-14,-57,-8,-3
1501624069615173,4,1,2,4,21,35,9,6
1501624069630211,-3,-1,-2,-1,-4,-37,-8,-4
1501624069630211,-1,-1,-2,1,14,20,-4,-1
1501624069632185,-1,-2,0,2,4,8,2,0
1501624069632185,-3,-1,-1,-4,-5,-28,0,-5
1501624069644203,-1,1,-2,0,0,5,-10,-2
1501624069644203,-1,1,-1,3,8,-15,8,2
1501624069653203,-3,-3,-1,-10,-24,-47,-10,-1
1501624069653203,-1,-3,0,0,14,45,2,-3
1501624069666213,0,-5,-2,-1,-3,-4,0,6
1501624069666213,-1,-1,-1,-4,-4,9,-4,2
1501624069675246,-3,1,-1,4,8,1,3,-2
1501624069675246,-2,-5,-3,-7,-9,6,-4,-4
1501624069690286,1,0,1,-1,-4,-8,3,2
1501624069690286,0,1,0,2,-1,-6,-1,-2
1501624069692231,0,-2,-1,0,11,3,5,0
1501624069692231,-2,-1,-1,-4,-14,-26,-6,-5
1501624069704298,-2,0,-2,-2,1,11,-11,-2
1501624069704298,0,1,1,0,-3,13,1,-3
1501624069713270,1,-2,0,0,-8,-12,-4,8
1501624069713270,-3,-1,1,4,7,-2,-2,1
1501624069726311,0,0,1,0,3,-1,2,-3
1501624069726311,-3,-1,-4,-2,-2,-9,0,-2
1501624069735289,0,0,0,0,6,3,-4,1
1501624069735289,-2,-2,-3,-4,-13,-29,-6,-1
1501624069750327,-3,-1,0,0,-5,32,4,-2
1501624069750327,-4,-1,-2,-1,-5,-8,-6,1
1501624069752272,0,-1,0,0,14,46,17,2
1501624069752272,0,-3,3,5,15,18,-4,1
1501624069764277,0,2,0,0,10,40,2,-8
1501624069764277,2,1,3,5,10,-41,-1,1
1501624069773284,-2,-1,-6,-11,-17,-2,-4,-2
1501624069773284,1,2,0,0,-1,0,3,0
1501624069786355,-3,-2,-1,0,0,-33,-4,-2
1501624069786355,1,0,0,-1,0,18,0,-1
1501624069795317,-1,-1,-2,-1,4,4,-3,2
1501624069795317,0,-3,-1,0,-4,16,3,8
1501624069810339,-2,-3,-1,-3,-2,-26,-5,-4
1501624069810339,1,0,-4,-3,0,-6,-2,-1
1501624069812317,-2,-2,1,-2,-3,25,11,1
1501624069812317,1,-1,0,0,-18,-27,-7,-3
1501624069824319,-1,-1,-2,-1,9,24,-3,1
1501624069824319,0,-4,0,-3,-1,-5,-8,-4
1501624069833326,-1,-1,-1,2,3,-5,0,-5
1501624069833326,-1,0,-1,0,2,-13,-2,-7
1501624069846336,-1,-1,-2,-5,-15,-29,-3,3
1501624069846336,0,-3,-2,-3,-9,29,7,0
1501624069855375,-1,0,1,3,13,11,-3,-1
1501624069855375,-2,-3,-1,-2,-4,3,3,0
1501624069870414,0,2,1,2,1,-28,-2,-1
1501624069870414,-2,-1,-2,2,-18,-28,-4,-2
1501624069872371,1,-2,1,-2,10,28,-3,-1
1501624069872371,0,-3,-1,-2,1,21,1,2
1501624069884415,0,0,-1,0,0,-15,-3,-1
1501624069884415,-1,-1,-3,-1,-1,0,2,1
1501624069893375,-1,1,-1,0,-4,-17,-3,-5
1501624069893375,-1,-2,-3,-1,5,-4,-1,1
1501624069906410,-1,-2,-3,-5,-16,-10,1,1
1501624069906410,0,1,0,-2,1,11,-4,-2
1501624069915416,-2,-2,0,0,-8,-19,-4,-2
1501624069915416,-1,-1,0,-3,7,2,-6,-2
1501624069929423,0,0,-3,-1,-6,17,6,-1
1501624069929423,-3,-2,-1,-1,4,1,0,-1
1501624069936461,0,-1,-2,-6,-11,16,5,0
1501624069936461,-1,-1,1,4,1,-18,-2,-1
1501624069944422,0,-1,0,-2,18,40,-2,-1
1501624069944422,0,-1,0,1,3,-17,-1,1
1501624069953441,0,0,-2,-3,-5,36,4,2
1501624069953441,0,4,-1,-4,-16,-17,0,-1
1501624069966481,2,-1,-1,-2,3,17,9,5
1501624069966481,-2,-3,-5,-2,-5,-23,-4,-3
1501624069975458,-3,0,1,6,4,-36,-2,-3
1501624069975458,1,0,1,0,6,67,9,3
1501624069989441,-3,0,-3,0,-13,-61,-4,-3
1501624069989441,-3,-3,-3,-6,-6,0,-7,-2
1501624069996446,1,1,-1,3,-1,-30,-3,1
1501624069996446,0,-1,-1,-5,-15,-1,-1,-3
1501624070004456,0,0,-1,5,4,-37,-4,7
1501624070004456,1,0,1,1,6,52,3,-1
1501624070012481,2,1,0,-1,-1,-27,-9,0
1501624070012481,-2,-2,-2,-1,5,-18,-3,-5
1501624070026522,-2,0,1,2,8,38,-1,-4
1501624070026522,-3,-1,-2,-3,-13,-59,-6,-3
1501624070035498,1,-2,-3,-4,-10,73,5,0
1501624070035498,0,-1,0,0,-2,-27,1,-1
1501624070049514,1,-4,0,-1,1,19,10,1
1501624070049514,-2,-1,-3,-4,-1,21,0,5
1501624070056578,-2,-1,0,4,14,12,3,-4
1501624070056578,-2,-3,-4,-5,-11,-10,2,1
1501624070063533,-2,-2,1,-1,-13,-26,-5,-1
1501624070063533,-2,2,-1,0,17,36,-4,-4
1501624070072591,0,-3,-2,-3,-5,-36,-5,-3
1501624070072591,-3,2,-2,0,13,0,-2,2
1501624070086573,-3,-3,0,-1,16,85,-3,-5
1501624070086573,1,1,1,1,-10,-40,-3,3
1501624070095615,-3,0,-3,-7,-12,-5,-4,-4
1501624070095615,-4,-1,-3,-2,-6,-43,-8,2
1501624070109615,0,0,-2,-6,-13,-20,3,1
1501624070109615,1,0,0,4,12,2,6,-1
1501624070116591,-4,-5,-2,-1,2,27,-3,-3
1501624070116591,0,2,2,0,-8,-21,-4,-2
1501624070132631,0,0,-1,1,4,6,2,1
1501624070132631,0,-1,-1,-1,4,11,-2,-1
1501624070134576,3,0,1,3,13,-2,5,1
1501624070134576,1,-5,-1,-9,-8,7,3,-1
1501624070146591,-3,-1,-1,3,-1,-3,-1,1
1501624070146591,-1,-4,0,-2,2,14,1,4
1501624070155596,-3,1,1,-3,-8,-24,-9,1
1501624070155596,0,-1,0,2,8,18,6,2
1501624070169660,-1,-1,-2,-1,3,-25,0,-2
1501624070169660,-2,1,-2,-4,-15,-9,1,1
1501624070176776,-2,1,-3,-4,-9,-4,2,-1
1501624070176776,2,4,0,4,8,-24,2,1
1501624070192738,-1,-1,0,5,35,70,-1,-4
1501624070192738,-2,-1,0,2,-4,-8,1,-4
1501624070194732,0,-1,-2,0,-10,-18,-12,0
1501624070194732,0,0,-1,1,-8,-10,2,1
1501624070206737,0,-3,-3,-9,-2,7,0,-1
1501624070206737,-1,-2,0,2,5,23,0,-6
1501624070215744,1,0,1,-2,-9,4,9,-1
1501624070215744,-1,-4,-2,2,11,-8,-4,-1
1501624070229754,-3,2,-1,-3,-20,-18,-4,1
1501624070229754,0,-4,-2,-3,-10,-16,-2,0
1501624070236787,-1,-2,-1,-2,-2,-15,-3,-1
1501624070236787,-2,1,0,3,15,61,-8,-2
1501624070252798,1,-2,1,-1,-10,-26,3,-1
1501624070252798,-1,-2,-2,-4,-11,-19,-4,-2
1501624070254771,-4,-3,-2,1,7,-17,-5,-3
1501624070254771,-4,1,-1,-1,4,8,-3,-3
1501624070266809,-1,-1,-3,-3,-14,-11,-5,-2
1501624070266809,1,1,2,2,11,9,-4,0
1501624070275814,-2,-2,-2,-2,-6,-28,-2,-5
1501624070275814,0,-2,0,-3,2,6,-2,0
1501624070289826,2,1,1,1,10,24,1,-2
1501624070289826,0,-1,-3,-3,-14,-15,5,9
1501624070296801,1,-1,1,2,6,-22,7,1
1501624070296801,-3,0,-1,1,13,45,8,-6
1501624070312824,-1,-1,-3,-6,-13,-50,-6,-5
1501624070312824,-1,-1,1,-1,-4,25,-2,-1
1501624070314842,-4,-3,-3,-2,1,15,3,0
1501624070314842,2,3,-2,-1,-8,-32,-3,3
1501624070326852,-1,1,-2,5,2,-21,1,-1
1501624070326852,-1,-1,-3,-2,10,27,0,-4
1501624070335857,2,-1,1,1,-4,-12,5,1
1501624070335857,-2,0,-5,-5,-16,-22,-11,-5
1501624070349866,-2,2,-1,1,3,18,2,-2
1501624070349866,0,-1,2,-1,13,12,3,-1
1501624070356873,-1,-2,-1,3,6,5,-3,-2
1501624070356873,0,0,-1,-1,-3,-8,-3,-3
1501624070372883,0,-2,-2,-5,-20,-6,0,1
1501624070372883,-2,0,-1,0,-6,-38,2,-3
1501624070374884,-1,0,-1,0,11,25,0,1
1501624070374884,-2,0,-1,-4,-8,-8,6,-2
1501624070386894,-1,-4,2,5,-1,-10,-20,-2
1501624070386894,0,3,-2,-4,-11,8,7,0
1501624070402880,2,-1,1,3,18,40,-8,7
1501624070402880,-1,-2,-1,-2,-12,-22,-1,-2
1501624070408887,-2,0,-2,-1,-3,-4,9,0
1501624070408887,0,-1,-1,1,8,0,-10,-3
1501624070417894,-1,0,-1,0,-3,-16,0,-4
1501624070417894,0,-1,2,1,0,22,-1,-4
1501624070432904,-2,-2,0,1,10,3,5,5
1501624070432904,0,3,0,-2,-8,-29,-4,4
1501624070434905,-1,2,-2,-4,-3,-6,1,1
1501624070434905,-2,-1,-2,0,-1,-10,-3,-5
1501624070446908,-2,-2,-1,-4,-6,3,-8,-8
1501624070446908,-2,-2,-2,1,-4,-35,3,-5
1501624070455913,0,0,0,0,11,63,7,3
1501624070455913,1,-3,0,-2,-2,-4,-1,3
1501624070468922,0,1,0,-2,-8,-8,-1,-1
1501624070468922,-1,2,-2,-1,-3,-10,0,-2
1501624070477929,-2,-1,-2,3,3,-7,-10,-5
1501624070477929,-2,-3,-1,-6,-12,-8,0,0
1501624070493005,1,1,0,0,-1,7,2,-1
1501624070493005,-1,-3,-3,1,2,-5,-5,-3
1501624070494478,0,-1,-3,-5,-4,-6,-1,-3
1501624070494478,1,0,-2,-3,-6,1,-1,8
1501624070506086,0,-3,-1,0,1,1,-2,0
1501624070506086,-1,0,-2,-1,-8,-14,-3,-1
1501624070515093,-2,-4,2,-1,7,31,-1,-7
1501624070515093,-2,-3,-3,-1,-2,-38,-7,3
1501624070529104,0,1,-3,-4,5,8,8,1
1501624070529104,-2,-7,-1,-2,12,19,-3,-3
1501624070538117,0,-2,-2,-6,-14,-33,-2,0
1501624070538117,0,-4,1,0,1,-3,-7,-5
1501624070553127,0,0,-3,1,3,-35,7,4
1501624070553127,1,-1,1,3,-1,46,9,1
1501624070554129,-2,-1,-1,0,-4,-2,-2,5
1501624070554129,-2,1,-1,0,3,13,5,-1
1501624070566137,-2,0,-1,-4,-7,3,-1,-6
1501624070566137,0,1,0,0,-2,-10,1,1
1501624070575136,-1,-1,-1,1,8,16,-2,-2
1501624070575136,0,-1,2,7,3,-14,2,1
1501624070589153,-1,-2,1,-2,11,11,-4,0
1501624070589153,-1,3,0,-3,-9,-9,1,-1
1501624070598159,-3,2,-1,-1,-10,-22,-4,-6
1501624070598159,-1,-5,-1,-1,-2,45,3,3
1501624070613170,-3,-2,-1,0,-4,-2,-5,-2
1501624070613170,-1,-2,-1,0,7,-17,-3,0
1501624070614164,1,1,-2,-2,-14,-19,0,1
1501624070614164,-1,0,-2,-2,-7,-5,-1,-5
1501624070626179,-2,-4,-1,4,17,37,-3,-1
1501624070626179,-1,-2,0,-5,-10,-15,-4,0
1501624070635184,-1,0,0,2,4,9,1,-1
1501624070635184,-1,0,1,-5,1,33,0,-3
1501624070649195,-1,-3,-1,1,1,1,0,1
1501624070649195,-2,-2,-4,-7,-7,1,-4,-4
1501624070658202,2,-3,1,1,4,-8,4,-2
1501624070658202,-2,0,-1,-5,-4,-16,-3,-3
1501624070673205,-1,0,0,0,-5,-36,-7,-4
1501624070673205,-1,-1,-3,-1,6,31,3,4
1501624070674213,-1,-3,-2,-4,-17,-11,-6,-3
1501624070674213,-1,-1,0,2,10,13,1,-1
1501624070686246,-3,-1,-3,-4,-8,-3,-1,-3
1501624070686246,0,-2,-2,-4,-9,10,5,2
1501624070695221,0,2,1,3,7,-1,-1,1
1501624070695221,1,2,0,1,-8,-35,4,-2
1501624070709238,0,1,-2,-3,-6,0,-6,-3
1501624070709238,1,-4,2,3,19,30,3,-4
1501624070718266,1,-2,-1,0,7,21,6,5
1501624070718266,-1,0,-2,3,22,35,4,-3
1501624070733248,-1,1,1,-4,-25,-43,-4,1
1501624070733248,-3,0,0,3,10,7,0,0
1501624070734256,-1,-2,-1,-6,-13,0,3,1
1501624070734256,-2,-1,-1,0,-1,-23,-5,-4
1501624070746260,0,0,-2,-4,-11,-21,0,2
1501624070746260,-3,-1,0,5,9,30,-5,-1
1501624070755263,-2,-3,-2,-4,2,-23,-1,-2
1501624070755263,-1,-1,-1,-3,-24,-14,-8,0
1501624070769273,1,0,2,-1,-3,-15,0,0
1501624070769273,0,-1,0,-2,-1,-1,0,0
1501624070778280,-2,-1,-2,-2,4,21,-7,-4
1501624070778280,-1,1,-2,-3,-8,-6,0,0
1501624070793290,-1,1,-2,1,6,11,4,4
1501624070793290,0,4,0,0,-8,-37,2,-1
1501624070794291,-1,-2,-4,-3,11,25,-5,-2
1501624070794291,0,-7,2,3,2,5,1,2
1501624070806328,-1,0,0,-2,0,13,2,-6
1501624070806328,-1,-2,-4,-3,0,-20,-13,-2
1501624070815305,1,1,1,1,-6,-24,1,2
1501624070815305,-1,-1,-2,-2,0,10,1,-3
1501624070829350,-3,-2,-1,-4,3,-22,-8,-5
1501624070829350,-1,-3,0,2,7,28,1,1
1501624070838350,-1,2,1,3,1,3,0,7
1501624070838350,0,1,-1,-2,10,-3,1,-3
1501624070852362,-1,0,-1,4,7,-5,1,1
1501624070852362,-2,0,-1,-3,-6,-9,-8,-5
1501624070854341,-1,-1,1,-1,-4,12,5,0
1501624070854341,0,0,-2,-2,3,9,4,1
1501624070866371,-2,-3,-4,-1,0,0,0,0
1501624070866371,0,-1,1,1,-3,-48,-4,-3
1501624070875354,-2,-6,0,4,10,6,-6,-5
1501624070875354,1,-1,-1,-9,-18,8,14,3
1501624070889358,0,2,1,0,-2,1,3,0
1501624070889358,-2,-4,-3,-4,-11,-13,-4,4
1501624070898365,0,-1,-2,-4,-5,-31,-1,-7
1501624070898365,-3,-4,-2,1,4,-4,-9,-5
1501624070912374,-2,-2,-2,-5,-25,-30,-4,-1
1501624070912374,-1,-5,4,4,35,52,9,2
1501624070919379,-1,-1,-4,-8,-27,-25,3,1
1501624070919379,-1,-1,-3,2,6,3,-8,-2
1501624070926414,0,-1,-2,-2,-1,8,3,1
1501624070926414,0,2,-2,-1,-4,-15,-6,-4
1501624070935390,-3,0,-3,-3,-14,-6,-4,-1
1501624070935390,1,1,0,3,9,1,-2,-1
1501624070949430,0,-1,0,2,16,25,1,-3
1501624070949430,-1,3,-3,-6,-19,5,14,2
1501624070958435,1,-3,1,1,11,-24,1,0
1501624070958435,-2,0,-3,-2,-10,16,-1,-4
1501624070972446,2,-4,-1,0,-3,-21,-3,8
1501624070972446,-2,-2,-1,0,-3,-17,-14,-3
1501624070987458,1,0,-1,-2,-4,16,8,2
1501624070987458,-1,-4,0,1,10,3,3,0
1501624070988433,-1,1,-1,0,5,46,3,-2
1501624070988433,-2,-1,-2,-1,-8,-19,-2,2
