timestamp,emg1,emg2,emg3,emg4,emg5,emg6,emg7,emg8
1504250623519797,-2,3,-5,0,-2,-1,-2,-12
1504250623519797,-3,4,2,1,3,3,-1,-3
1504250623525275,-3,-10,-8,-2,-2,-3,-3,-4
1504250623525275,-6,26,17,3,1,2,2,-6
1504250623526276,6,-16,-7,-1,2,3,2,9
1504250623526276,5,1,0,-1,0,0,1,5
1504250623527775,-7,-2,1,-1,2,6,0,-4
1504250623527775,-8,-1,-11,-4,-6,-12,-3,-3
1504250623538773,-6,1,6,3,3,4,1,3
1504250623538773,9,2,3,-5,-6,-4,-6,-11
1504250623549774,-3,-7,-2,1,4,6,2,2
1504250623549774,-7,-29,-12,-1,-11,-11,-6,2
1504250623553775,5,6,-3,-2,-2,0,-1,0
1504250623553775,-6,-4,-5,-3,-4,-3,3,9
1504250623568291,-2,5,5,1,1,-3,-2,-9
1504250623568291,-2,-2,-1,1,5,8,2,-1
1504250623578271,1,-2,-9,-2,-5,-4,0,-4
1504250623578271,0,-4,13,0,-1,-3,-1,3
1504250623584772,-6,-4,-10,0,-3,-5,-4,-7
1504250623584772,12,0,-2,-4,-1,2,3,13
1504250623598770,-4,3,2,1,0,-3,-2,-11
1504250623598770,-5,4,-2,0,6,9,1,-7
1504250623608786,6,3,4,-1,-4,-9,-2,9
1504250623608786,-2,-8,-3,-1,2,1,-2,-11
1504250623645768,-2,-1,1,1,6,8,0,5
1504250623645768,0,29,-4,-10,-18,-23,-9,-7
1504250623646768,4,-34,11,8,1,4,2,11
1504250623646768,-11,7,1,-1,1,2,0,-6
1504250623647768,5,2,-1,-2,-4,3,0,3
1504250623647768,-5,-1,-1,1,3,-6,2,-1
1504250623650769,8,9,-1,-4,-4,-2,-3,1
1504250623650769,-10,-4,-2,0,-5,-3,-3,-1
1504250623658286,-1,-5,-2,-2,1,1,2,-2
1504250623658286,1,0,-4,-1,3,6,1,-28
1504250623667267,-9,15,11,2,3,3,-3,-5
1504250623667267,-4,-24,-4,4,-2,-12,0,1
1504250623673266,3,5,-5,-5,-3,-5,-1,-1
1504250623673266,-2,-10,-5,-2,1,4,-2,4
1504250623688266,-3,2,-8,-5,-4,-4,-1,-2
1504250623688266,5,3,-2,-2,0,-2,0,-2
1504250623695765,-5,-2,1,0,1,-2,-1,-6
1504250623695765,2,-8,0,0,1,3,0,6
1504250623704764,2,0,-4,-2,4,4,3,3
1504250623704764,-3,8,-4,2,1,1,-5,-5
1504250623718266,6,12,18,3,-3,-3,1,5
1504250623718266,-5,4,0,2,4,9,3,6
1504250623727264,-5,-5,-6,-6,-6,-2,2,5
1504250623727264,18,-22,-10,-4,-5,-7,-3,-7
1504250623733263,-3,3,-2,-1,5,6,0,-3
1504250623733263,1,0,5,3,1,-2,-1,6
1504250623748264,-6,-1,-6,-5,-9,-13,-2,-4
1504250623748264,4,4,-2,-3,1,2,2,1
1504250623755763,6,-12,-13,2,-1,2,1,43
1504250623755763,2,7,23,4,2,1,-4,-9
1504250623770761,-1,-9,1,0,4,1,1,-1
1504250623770761,2,0,0,-3,5,9,2,10
1504250623778262,-5,-7,-11,-7,-5,-9,-4,-17
1504250623778262,-20,2,-8,-3,-3,-3,-4,-4
1504250623787262,15,4,-5,-1,-5,-6,-5,-3
1504250623787262,-14,5,8,1,8,10,0,-7
1504250623793259,-7,-9,-7,-2,-9,-14,-3,-17
1504250623793259,5,7,3,-3,-2,-3,-1,4
1504250623808259,-1,0,1,2,0,2,0,-3
1504250623808259,1,-5,-8,-1,-2,-1,-1,1
1504250623815760,0,5,3,-1,0,1,-1,-3
1504250623815760,-1,-13,-4,2,3,2,1,-9
1504250623830757,1,4,-6,-3,-2,-3,-3,21
1504250623830757,0,-6,6,0,-1,1,3,0
1504250623838256,-4,-2,-3,-1,0,1,1,-5
1504250623838256,11,2,8,1,-1,-2,0,5
1504250623847257,-18,-17,-6,3,10,15,2,-11
1504250623847257,3,12,7,-3,-12,-14,-3,-1
1504250623853255,2,1,1,-1,-3,-3,-3,-3
1504250623853255,2,-3,-6,-4,4,4,3,14
1504250623869755,1,7,-3,-5,-7,-7,-4,-7
1504250623869755,-1,-2,-2,0,-3,-3,-1,11
1504250623875756,-4,-25,-2,0,-1,-4,-2,-6
1504250623875756,-5,-4,-6,3,2,7,-1,-14
1504250623890754,10,5,0,-2,-2,-2,3,8
1504250623890754,-2,10,2,1,7,6,1,-4
1504250623898253,0,0,-3,-5,-7,-9,-7,-2
1504250623898253,2,-10,-5,1,-2,-3,0,6
1504250623907256,-3,7,-3,-1,0,-1,-2,-6
1504250623907256,-6,-20,5,0,2,4,-1,-19
1504250623913258,-3,5,-5,1,1,4,1,6
1504250623913258,8,-5,-4,-2,-5,-2,0,13
1504250623928252,-20,12,5,-2,-4,-4,-3,-17
1504250623928252,6,-14,-13,-6,-1,5,-1,0
1504250623935751,4,4,-4,0,-1,-6,0,-3
1504250623935751,-17,-3,7,0,-8,1,-2,-8
1504250623950751,15,6,3,0,-2,-6,-4,3
1504250623950751,-2,7,-4,0,1,-1,-3,3
1504250623958250,2,2,5,0,4,5,0,6
1504250623958250,-2,-7,-6,-2,-3,-3,-3,0
1504250623967251,3,-8,-5,-1,1,-2,-1,-4
1504250623967251,-1,9,6,4,4,1,3,2
1504250623973249,0,7,7,0,-6,-6,-3,-1
1504250623973249,7,-7,-17,-4,1,4,3,2
1504250623988248,3,3,8,0,-4,-2,1,2
1504250623988248,-15,-3,-5,0,-4,-10,-6,-18
1504250623995748,0,16,6,3,2,3,-1,16
1504250623995748,-1,-22,-2,-3,8,8,2,-3
1504250624010747,-5,-6,-3,0,-6,-10,-3,-10
1504250624010747,1,6,-1,-4,-7,-7,-1,18
1504250624018247,2,2,-2,-2,-1,-1,-4,-38
1504250624018247,-3,7,2,-1,0,-5,0,-2
1504250624027245,2,-6,-2,0,3,5,1,4
1504250624027245,9,4,0,2,2,0,3,12
1504250624033247,-12,-12,-4,-6,-7,5,5,1
1504250624033247,-2,15,-3,-2,-4,-7,2,16
1504250624049747,3,-25,-2,0,-2,-3,-14,-27
1504250624049747,-5,7,4,2,-2,-5,-1,-3
1504250624055744,-10,-9,-10,-3,0,9,3,-1
1504250624055744,15,19,21,4,2,-1,3,-2
1504250624070743,-8,4,-7,-3,0,6,6,20
1504250624070743,12,-9,3,-2,5,12,-2,-24
1504250624078242,4,3,2,2,-7,-13,-3,-1
1504250624078242,-3,-12,-4,-1,-1,-5,0,-1
1504250624087243,-4,1,1,-1,1,-2,-1,10
1504250624087243,-3,10,-3,-4,1,2,1,-30
1504250624100742,3,-20,-1,3,7,-4,-10,-1
1504250624100742,-2,5,-3,-6,-9,-1,0,2
1504250624109741,11,5,6,3,4,0,0,-3
1504250624109741,8,1,-11,-5,-7,0,4,17
1504250624115741,-11,-1,16,0,1,0,1,-5
1504250624115741,-1,-9,-15,-2,2,2,-6,-4
1504250624130740,-6,-6,2,1,4,-3,1,2
1504250624130740,3,7,8,0,-3,-3,-1,9
1504250624138240,4,12,-6,-2,4,3,2,9
1504250624138240,-18,-30,3,0,3,1,-4,-13
1504250624147249,7,15,-4,1,-1,-4,-1,-3
1504250624147249,3,0,-3,-3,-2,-1,1,4
1504250624160739,7,14,0,0,-8,-6,0,-1
1504250624160739,-6,-13,-7,-4,-8,-7,-2,-2
1504250624169739,5,8,-3,-1,8,16,6,-2
1504250624169739,-19,-13,0,-2,-16,-22,-11,-3
1504250624175737,9,2,-11,-1,7,9,2,10
1504250624175737,6,14,17,1,-4,-7,-3,-3
1504250624190736,-20,-10,-4,1,1,2,-7,-17
1504250624190736,14,7,1,-1,3,-1,3,15
1504250624198236,-4,-18,5,1,-1,0,1,-6
1504250624198236,-10,9,-3,0,-3,-6,-7,5
1504250624207237,-4,-9,-3,-2,-1,3,3,-1
1504250624207237,7,1,-3,-2,1,4,-1,5
1504250624229735,-2,-5,2,1,7,7,-1,-4
1504250624229735,5,11,-13,-3,-7,-9,1,6
1504250624231236,-9,-24,1,-1,-2,1,-1,-2
1504250624231236,-10,2,-5,1,0,-3,-3,-10
1504250624235734,13,6,-1,-1,-2,-3,6,48
1504250624235734,5,4,-2,0,7,12,0,-13
1504250624250733,-3,10,-4,-6,-5,-6,1,1
1504250624250733,-7,-12,1,1,8,4,0,-1
1504250624258233,-3,-5,-2,-6,-9,-6,-6,-8
1504250624258233,-6,1,-1,2,0,-5,-5,-19
1504250624267233,13,6,-3,2,2,4,1,13
1504250624267233,-5,-6,3,1,2,0,1,-2
1504250624280735,-2,-5,-7,-4,-1,0,-2,-9
1504250624280735,-7,-6,-1,0,6,6,1,-3
1504250624289732,7,7,4,-2,-6,-4,-2,-5
1504250624289732,0,-11,3,-1,-8,-12,-3,-4
1504250624295730,-2,4,-3,4,5,-1,-1,0
1504250624295730,15,5,1,-7,-15,-7,-1,15
1504250624310730,-5,-7,8,5,12,9,1,-12
1504250624310730,-2,8,-6,-6,-9,-5,-6,-8
1504250624318240,-9,-3,1,4,1,-1,0,-2
1504250624318240,-10,30,17,0,4,0,-1,-3
1504250624327228,13,-23,-19,-6,-11,-5,0,15
1504250624327228,1,-1,-6,-2,1,6,0,9
1504250624340728,-9,-1,0,-1,-1,4,-2,-20
1504250624340728,1,7,-5,-1,2,-2,2,4
1504250624349728,-8,10,1,3,1,-4,-2,0
1504250624349728,-6,3,5,4,3,4,0,-16
1504250624355727,-11,-3,-1,-2,0,3,0,-7
1504250624355727,17,-9,-4,0,1,1,0,6
1504250624370726,-4,0,1,-6,-5,-6,3,12
1504250624370726,-11,-11,-4,-2,-1,4,0,-6
1504250624378225,6,18,5,3,0,-1,-3,18
1504250624378225,8,-5,3,1,-1,-1,13,2
1504250624387226,-5,-7,-6,-4,-5,-12,-25,-10
1504250624387226,-3,0,2,-2,1,3,8,22
1504250624400724,-2,-5,-3,-2,-10,-8,-13,-41
1504250624400724,-1,2,0,0,2,1,0,-9
1504250624409726,9,0,-6,-1,5,18,18,10
1504250624409726,-4,19,-4,-2,-7,-10,1,21
1504250624415728,11,-20,9,-1,-2,-8,-9,-17
1504250624415728,-24,-30,-10,-4,-6,-6,-10,45
1504250624430723,18,26,11,4,2,-1,5,-24
1504250624430723,-16,7,1,-3,5,6,-6,-7
1504250624438222,-4,6,0,0,-1,-1,22,-8
1504250624438222,9,-27,-3,5,7,5,7,14
1504250624447223,-19,-5,6,-4,-9,-19,-44,13
1504250624447223,10,9,-1,-4,-3,-2,-14,-69
1504250624460722,-1,6,-7,-1,2,3,0,-9
1504250624460722,-7,-4,-2,0,-2,6,5,-14
1504250624469720,-8,7,1,2,2,4,19,11
1504250624469720,-8,-31,-12,0,-4,-11,-2,15
1504250624475719,-4,6,4,1,2,4,-15,-15
1504250624475719,1,1,-3,1,2,-8,3,-4
1504250624490720,1,3,4,-3,-11,-2,4,-16
1504250624490720,-13,4,2,-5,1,4,-4,-18
1504250624507218,10,-6,-11,-2,-2,-5,14,42
1504250624507218,4,0,1,-2,-1,3,-10,1
1504250624508719,-5,4,1,-1,0,-3,-2,-10
1504250624508719,0,-1,13,9,11,13,6,3
1504250624520717,3,8,-3,-2,-1,3,14,22
1504250624520717,-7,-26,-3,-7,-9,-18,-18,-17
1504250624529717,-3,0,-6,-2,-4,-6,-5,-4
1504250624529717,12,2,-11,-2,-1,2,4,-1
1504250624535717,-9,7,8,2,2,5,-1,-3
1504250624535717,9,16,2,-1,4,-1,-2,-8
1504250624550721,-10,-19,-6,-1,1,0,7,10
1504250624550721,11,-1,4,2,-2,-3,-1,12
1504250624558216,5,1,-4,-4,-1,-2,-8,-21
1504250624558216,-19,-4,-3,-2,-1,3,0,-9
1504250624567217,2,-2,0,-3,-6,-8,-3,7
1504250624567217,8,13,-2,-4,-4,-3,3,9
1504250624580717,-2,-7,3,1,-7,-17,-12,-11
1504250624580717,2,5,0,0,-1,7,3,1
1504250624589714,1,-1,-2,3,9,7,10,-2
1504250624589714,-11,1,-3,-6,-5,-1,-11,-1
1504250624595729,-8,-20,-5,-4,-7,-3,0,2
1504250624595729,-9,12,-1,0,1,-1,-1,-13
1504250624610727,6,4,-2,-3,-1,0,0,5
1504250624610727,13,-3,1,-1,3,5,6,11
1504250624618223,-21,-6,-7,-4,1,1,-3,-2
1504250624618223,18,0,-3,-4,-12,-14,-2,11
1504250624633211,0,2,5,-2,2,9,1,-12
1504250624633211,-5,-2,4,1,-6,-10,-3,-3
1504250624640711,1,3,5,7,8,8,-1,-19
1504250624640711,-1,-3,-1,-2,2,3,-2,1
1504250624656711,-2,0,1,-2,-6,-15,-4,-6
1504250624656711,-3,-6,-7,-4,-3,-2,-2,5
1504250624657211,-4,-3,-5,-2,3,3,3,1
1504250624657211,3,13,6,1,0,1,-2,9
1504250624670709,13,-12,-2,-2,0,0,-2,1
1504250624670709,-7,-17,-5,5,5,3,5,-1
1504250624678209,4,0,-5,-3,-4,-6,-3,9
1504250624678209,-5,-5,-2,-4,3,10,9,10
1504250624693208,-3,0,-1,-2,-7,-12,-7,-10
1504250624693208,9,13,0,0,-1,2,1,0
1504250624700707,6,-12,-9,-3,-8,-9,-1,8
1504250624700707,-2,11,7,1,-2,-6,-5,6
1504250624716709,-14,-15,1,2,1,7,2,-9
1504250624716709,12,2,-2,1,0,1,2,9
1504250624717211,0,6,-2,-5,0,1,0,4
1504250624717211,0,-8,-7,-1,-3,3,-1,-17
1504250624730706,0,4,-6,-1,-1,-2,1,2
1504250624730706,-5,-1,3,4,3,2,-1,-4
1504250624738225,0,3,-2,0,5,8,1,10
1504250624738225,2,-9,-7,-6,-10,-12,-6,-7
1504250624753204,3,4,4,1,-5,-2,0,38
1504250624753204,7,2,-3,-6,-10,-8,-2,0
1504250624760704,-1,-6,3,1,-1,-1,-4,1
1504250624760704,-4,6,4,2,3,5,1,-9
1504250624776204,1,18,2,1,3,6,1,-4
1504250624776204,8,-22,-2,-3,1,-3,2,11
1504250624784204,-8,6,2,0,1,-2,-3,-10
1504250624784204,-2,-3,-3,-1,5,17,3,-1
1504250624790702,-2,-13,-17,-5,-7,-19,-4,-4
1504250624790702,13,6,10,4,-1,-2,-1,6
1504250624798201,-4,-2,3,-3,-7,-2,-3,5
1504250624798201,-4,-10,-9,-2,1,1,-1,-5
1504250624813203,1,-1,3,-1,3,5,0,-12
1504250624813203,-12,-1,-6,-3,-1,-2,-1,-1
1504250624820711,6,2,5,3,2,1,0,1
1504250624820711,-3,-7,-6,0,0,-4,-1,-2
1504250624836219,5,9,9,3,2,6,0,5
1504250624836219,-11,-10,-12,-4,-1,-5,-5,-12
1504250624837219,3,18,6,0,-1,3,0,6
1504250624837219,6,5,16,4,3,-1,1,0
1504250624850703,-8,-12,-10,0,6,12,6,-8
1504250624850703,5,9,3,-4,-10,-20,-7,39
1504250624858198,2,0,-5,-5,-1,-2,-3,-7
1504250624858198,-4,-15,-6,-1,-4,-8,-3,-6
1504250624873196,-3,-1,2,2,5,9,2,-4
1504250624873196,-2,3,2,0,5,9,3,-8
1504250624880697,-3,-4,-1,2,-1,-4,1,1
1504250624880697,3,0,-4,-2,-3,-4,-2,7
1504250624896196,-5,5,0,-3,0,1,-1,-1
1504250624896196,-3,1,-2,0,1,1,2,-2
1504250624897199,8,-4,-7,-2,-3,-4,-1,9
1504250624897199,-4,-9,-4,3,0,0,-1,-8
1504250624910695,2,11,5,-4,-4,-6,-5,-8
1504250624910695,-14,-26,1,6,1,-1,-3,-8
1504250624918195,1,8,-2,-3,2,7,1,2
1504250624918195,1,0,-2,-6,-4,-4,-1,1
1504250624933195,4,5,-2,3,11,11,1,3
1504250624933195,-8,-8,-7,-10,-23,-22,-10,-22
1504250624940694,3,1,6,2,-2,-8,1,29
1504250624940694,3,3,2,0,-2,-1,-3,1
1504250624956193,-6,-6,-1,-2,0,-1,-5,-15
1504250624956193,0,5,-6,-4,1,5,0,-15
1504250624957193,-5,5,-2,-1,-4,-2,-1,-9
1504250624957193,-5,-9,18,3,1,-3,2,-2
1504250624970692,1,-4,-10,-3,-4,-3,1,11
1504250624970692,-10,-1,-3,3,6,9,4,-7
1504250624978191,3,-13,-5,-7,-5,-11,-18,-13
1504250624978191,-3,19,-3,0,9,13,1,-11
1504250624993190,-3,-18,-6,-4,-12,-11,-2,10
1504250624993190,4,6,5,-1,-5,-12,6,-3
1504250625000690,-6,-15,-3,1,-1,-2,-7,-12
1504250625000690,1,9,-3,-4,-10,-5,-1,-3
1504250625016693,-1,-3,2,1,1,-2,0,3
1504250625016693,5,10,-2,1,3,8,3,13
1504250625017190,3,-19,1,0,6,6,1,1
1504250625017190,-9,4,-4,0,-4,-4,-3,-6
1504250625030688,-2,-5,-1,2,1,1,3,-2
1504250625030688,-2,-2,3,-2,4,0,-6,-38
1504250625038188,3,14,0,-3,2,1,3,2
1504250625038188,-8,-12,-8,-4,2,2,-1,4
1504250625053188,0,-2,-3,-3,-6,-9,-1,-3
1504250625053188,-2,3,-1,-3,1,1,-5,-4
1504250625060686,-6,-2,-1,-2,-3,2,2,-11
1504250625060686,5,-3,-4,1,-1,1,1,1
1504250625075686,-3,5,-2,-1,-9,-6,-2,8
1504250625075686,1,2,1,-5,2,5,-2,5
1504250625084186,0,1,6,3,2,5,6,6
1504250625084186,-4,-16,-17,-5,-8,-11,-6,-5
1504250625090685,5,6,10,3,10,12,5,3
1504250625090685,4,-2,-8,-5,-13,-12,4,2
1504250625098184,-2,12,5,2,2,4,-11,8
1504250625098184,-1,5,-2,-1,2,-2,-2,-27
1504250625113184,-7,-10,-4,0,4,3,-3,-3
1504250625113184,7,5,-2,0,0,2,-2,6
1504250625120683,-1,-5,-7,-4,-2,-2,8,1
1504250625120683,6,6,9,3,3,3,3,14
1504250625135682,-1,18,0,-1,5,1,6,-14
1504250625135682,-15,-23,6,0,-18,-18,-21,-14
1504250625143683,-10,3,4,3,-1,-7,-3,-33
1504250625143683,4,-7,-3,0,3,7,-5,-2
1504250625150682,-6,4,-4,-5,-6,-6,0,7
1504250625150682,2,7,0,1,11,9,4,-3
1504250625158182,-2,0,-1,-3,-3,-3,2,0
1504250625158182,-2,-1,0,-1,-3,-4,2,20
1504250625173180,0,-2,1,0,-1,-1,-7,-20
1504250625173180,-1,-1,-3,1,0,5,1,12
1504250625180680,-4,-5,-3,0,-2,1,0,1
1504250625180680,13,1,1,-2,10,15,5,12
1504250625195679,-4,-4,-7,2,-18,-29,-11,-1
1504250625195679,-2,-11,-2,1,6,8,1,0
1504250625203680,2,16,-1,-2,-4,-7,2,4
1504250625203680,-4,-14,-4,-4,-1,0,-2,-7
1504250625219178,-1,-2,3,0,5,6,-1,4
1504250625219178,1,3,-2,0,1,0,1,3
1504250625219678,-4,-1,-5,-2,2,1,0,-1
1504250625219678,-2,5,-1,1,-4,-8,-3,-8
1504250625233177,0,-8,-3,-4,-3,-1,-3,8
1504250625233177,-1,0,2,3,2,1,2,-2
1504250625240676,10,15,8,4,1,2,4,16
1504250625240676,1,-9,-12,-3,-3,-3,-2,-8
1504250625255675,1,15,15,1,-1,1,-1,-7
1504250625255675,6,-16,-9,1,23,29,11,18
1504250625263175,-5,-2,3,-12,-38,-43,-15,-7
1504250625263175,-1,-6,-4,2,-7,-10,-3,9
1504250625279176,-4,2,-8,-4,-3,5,-2,-14
1504250625279176,-1,5,1,0,1,-3,-3,-7
1504250625279675,1,-13,-3,2,10,13,2,-4
1504250625279675,-2,9,5,-1,-3,-3,2,8
1504250625293174,6,-11,-7,1,5,11,4,28
1504250625293174,-14,-3,1,-2,-5,-11,5,-5
1504250625300674,17,-14,-11,-5,-11,-10,-3,10
1504250625300674,9,27,9,-1,-6,-10,-5,5
1504250625315676,-6,-22,-5,-1,6,6,2,-7
1504250625315676,10,14,10,0,-6,-5,-4,7
1504250625323174,-9,0,-5,-1,8,11,4,-7
1504250625323174,-8,-6,-2,-3,-5,-5,-2,-8
1504250625339171,4,2,-1,-2,-1,-4,0,-5
1504250625339171,-2,-2,-8,-1,-1,0,-1,0
1504250625339671,-4,1,5,2,4,1,-2,-7
1504250625339671,0,-9,-7,1,5,9,1,-3
1504250625353171,1,-2,6,-1,1,0,2,1
1504250625353171,-11,-3,-2,-2,-14,-18,-8,-4
1504250625360670,2,-2,-1,-1,3,5,1,1
1504250625360670,0,2,-1,-2,2,1,0,9
1504250625375669,-1,3,0,-1,1,1,-4,-14
1504250625375669,1,-2,-3,0,0,-2,-2,-10
1504250625383171,2,0,-2,-1,3,4,2,-1
1504250625383171,-4,-5,-1,1,-6,-3,0,-1
1504250625399167,-1,-19,-1,1,-4,-6,-2,-2
1504250625399167,2,10,-11,-5,-1,-1,0,5
1504250625399669,-12,29,14,8,26,33,7,-3
1504250625399669,7,-31,0,0,-28,-42,-11,4
1504250625413168,-5,13,1,-2,-4,1,-5,-24
1504250625413168,2,0,0,0,-1,2,0,13
1504250625420667,-12,-8,-7,-5,-3,0,-3,-12
1504250625420667,-6,11,2,0,9,14,5,-7
1504250625435666,5,-2,-1,3,-1,-3,0,21
1504250625435666,2,-4,3,-2,-1,-3,0,0
1504250625443166,0,-11,-4,0,-1,-3,0,1
1504250625443166,-5,9,7,2,4,4,1,-7
1504250625459164,-3,4,-7,-1,-9,-9,-4,-6
1504250625459164,-6,-13,-4,-1,10,18,1,-2
1504250625459665,10,-3,0,-1,-10,-9,0,14
1504250625459665,-7,-2,-4,-3,-11,-20,-10,-6
1504250625473162,5,9,1,-4,5,5,1,2
1504250625473162,-2,-10,-5,0,-6,-5,-1,11
1504250625480664,-7,-10,-4,0,4,1,-3,-12
1504250625480664,2,0,-4,-2,5,8,0,-4
1504250625495662,-4,-2,0,0,-2,-3,1,-3
1504250625495662,5,8,4,-1,-1,-2,-2,1
1504250625503161,-3,3,2,-6,-5,-7,-3,-4
1504250625503161,-6,-5,5,8,9,8,4,3
1504250625518660,2,2,6,0,0,-3,0,8
1504250625518660,4,0,-9,0,7,6,2,-7
1504250625519661,-2,1,0,-1,-11,-11,-1,-2
1504250625519661,5,15,7,-4,-5,-6,-4,0
1504250625533159,-2,-8,-5,-2,-2,2,-1,1
1504250625533159,-8,-1,-1,0,-4,-4,-2,-3
1504250625540659,7,6,-11,-1,7,10,2,-2
1504250625540659,-1,8,3,2,3,6,2,4
1504250625555659,11,-11,17,4,-6,-9,-1,4
1504250625555659,-22,-9,0,2,3,4,-2,-18
1504250625563158,0,-7,-5,-1,-5,-10,-4,6
1504250625563158,8,1,-7,-5,-2,-1,3,4
1504250625579157,1,10,-2,-1,4,5,-1,2
1504250625579157,0,1,2,-1,-4,-10,-2,1
1504250625579658,-4,-13,3,-1,-3,0,0,-6
1504250625579658,-3,1,-5,-2,0,3,1,1
1504250625593156,-6,-6,-5,0,-2,-2,-1,-3
1504250625593156,6,3,4,-1,0,3,0,2
1504250625600655,-2,-1,-1,-1,-6,-14,-3,3
1504250625600655,-1,-13,-3,1,4,6,-1,-7
1504250625615655,1,-8,-4,-4,-1,0,0,1
1504250625615655,-9,2,-6,-3,-3,0,-1,-2
1504250625623154,-1,-6,0,-1,3,2,0,6
1504250625623154,0,0,4,-1,6,9,4,-3
1504250625638653,2,5,-7,-6,-9,-17,-5,-3
1504250625638653,-7,6,6,-1,-1,-4,-2,-1
1504250625639653,-6,-22,-6,-1,3,1,-3,-9
1504250625639653,5,1,7,1,-1,4,1,8
1504250625653152,-4,-11,-7,-2,2,5,1,-2
1504250625653152,0,11,-4,-1,-3,-6,-6,-3
1504250625660653,2,-3,-5,0,-3,1,1,7
1504250625660653,-4,11,5,1,3,3,-1,-10
1504250625675651,3,-7,-8,-2,3,7,1,-3
1504250625675651,0,-7,9,2,-7,-13,0,2
1504250625683155,5,17,2,1,-4,-7,-1,6
1504250625683155,0,-9,-7,-2,-1,0,-1,0
1504250625699150,-7,5,-1,2,2,0,-1,-1
1504250625699150,2,-3,1,-2,7,5,0,0
1504250625699651,-3,-7,-3,0,-1,0,0,-5
1504250625699651,-1,5,0,-3,0,0,-1,2
1504250625713149,-3,0,-3,-2,0,1,-1,-3
1504250625713149,8,7,13,5,-3,0,-1,0
1504250625720651,3,2,-6,-6,0,3,1,-2
1504250625720651,-4,12,2,0,-2,-1,-1,-3
1504250625735648,-1,-17,-5,0,-3,-3,0,5
1504250625735648,3,-2,0,-2,-2,-4,-2,2
1504250625743147,0,0,-5,-3,-4,-7,-1,-2
1504250625743147,-3,1,8,2,2,1,2,-1
1504250625758646,-2,4,-5,-2,-1,1,-2,-4
1504250625758646,-3,-7,-8,-2,-3,0,-3,-6
1504250625759646,-8,1,-2,-2,0,4,0,-24
1504250625759646,-8,-13,-5,-2,-4,-6,-3,-6
1504250625773145,-2,12,7,3,0,-1,-2,-4
1504250625773145,8,2,2,0,-3,0,2,12
1504250625780645,-5,-8,3,2,8,9,1,-7
1504250625780645,2,0,-8,-6,-14,-20,-6,-1
1504250625795644,0,6,-4,1,-1,0,0,-3
1504250625795644,1,2,11,2,3,4,1,-4
1504250625803144,1,-3,-2,-2,-2,0,-2,8
1504250625803144,2,5,-2,-2,-1,0,-2,-2
1504250625819143,-5,-10,-8,-5,0,-2,-2,0
1504250625819143,9,-5,-4,-1,4,4,0,1
1504250625819643,-8,6,6,2,-4,-7,-2,-2
1504250625819643,7,2,-3,-4,-4,-1,0,3
1504250625833143,-1,-13,-4,-3,-4,-3,-2,1
1504250625833143,0,-2,-8,-4,-5,-1,0,2
1504250625840642,-1,-3,4,1,-1,-4,-2,0
1504250625840642,-1,20,-11,-5,3,5,1,-2
1504250625855642,-4,-19,17,6,-2,-5,-4,-1
1504250625855642,3,2,-7,-3,0,-3,-4,-3
1504250625863141,-1,5,8,1,-1,2,-2,2
1504250625863141,4,-12,-10,-3,-1,-2,-1,5
1504250625879140,3,13,4,1,1,9,1,-1
1504250625879140,-4,-18,-9,-1,-4,-1,2,2
1504250625879640,-11,-1,-4,-3,-1,-1,-3,-10
1504250625879640,0,-2,3,4,11,8,5,0
1504250625893155,-3,9,0,-5,-9,-7,-4,-4
1504250625893155,-4,-15,0,1,-3,-1,-2,-3
1504250625900660,7,7,-6,-3,-3,-10,-4,3
1504250625900660,-3,-10,2,1,0,2,0,4
1504250625915639,7,3,-2,-1,0,-1,-3,-1
1504250625915639,-10,10,1,-4,1,1,-1,-8
1504250625923138,13,-3,1,1,1,3,4,6
1504250625923138,-15,-10,1,0,1,2,-3,-7
1504250625939137,12,7,3,0,-1,-1,-1,9
1504250625939137,-1,2,-2,0,2,-1,1,-5
1504250625939638,-5,-7,-3,-2,-1,1,1,5
1504250625939638,11,1,-1,1,-3,-1,0,13
1504250625953136,-12,-2,-1,-3,2,-4,-3,-20
1504250625953136,2,6,3,2,-2,-2,3,0
1504250625960635,-3,12,0,-1,0,-1,-1,3
1504250625960635,9,-16,-6,-2,-7,-12,-4,1
1504250625975652,-12,-17,-11,-4,-1,-2,0,3
1504250625975652,3,6,2,4,2,1,0,1
1504250625983151,-2,4,4,0,0,4,0,-2
1504250625983151,-4,3,-1,0,0,5,1,-5
1504250625998134,7,-3,-6,-2,2,2,2,4
1504250625998134,-8,-1,0,-3,-9,-7,-6,-11
1504250626006633,5,-3,0,-2,2,5,2,7
1504250626006633,-5,-2,-5,-1,-5,-7,-3,-8
1504250626013132,0,18,6,2,-1,-2,0,-1
1504250626013132,6,-19,-1,-1,5,11,3,15
1504250626020631,-10,0,-7,-2,-8,-9,-9,-29
1504250626020631,-1,-2,-5,-1,1,-3,-3,-5
1504250626035631,-1,1,10,2,-3,1,1,1
1504250626035631,-4,5,-6,-6,-1,-5,0,8
1504250626043131,2,0,3,2,-2,-2,-1,1
1504250626043131,-5,-6,-1,2,4,7,2,-4
1504250626058130,-2,1,-9,-3,-5,-5,-3,-3
1504250626058130,-2,-2,0,0,-1,3,-3,-6
1504250626066629,6,13,0,1,-3,-1,2,9
1504250626066629,-9,-17,2,-1,-2,-4,-4,-5
1504250626073128,4,5,-3,1,-1,-2,0,4
1504250626073128,-2,8,-1,-3,-1,1,0,0
1504250626080629,-2,-20,-11,-2,-3,-5,0,2
1504250626080629,-4,-1,-2,-1,2,1,-1,-2
1504250626095627,-1,-3,-2,0,2,5,-1,3
1504250626095627,-3,1,6,4,-5,-8,-2,-7
1504250626103126,2,0,-5,-3,2,4,1,2
1504250626103126,17,8,3,2,-3,2,2,7
1504250626118126,-26,-7,2,0,-6,-8,-3,-10
1504250626118126,14,9,-3,-1,5,10,4,9
1504250626126625,-4,-11,-4,1,1,-1,1,-2
1504250626126625,7,32,8,-1,0,-4,-1,8
1504250626133126,-3,-23,-9,-3,3,13,3,-5
1504250626133126,5,4,0,-4,-7,-17,-6,3
1504250626140624,-11,-3,2,-2,-2,6,-4,-13
1504250626140624,-7,-8,-17,-8,-5,-6,-1,-4
1504250626155624,12,12,11,6,5,3,4,19
1504250626155624,-9,-4,-1,-1,1,-5,-3,-14
1504250626163126,11,9,6,1,-1,-1,-1,11
1504250626163126,-2,-23,-21,-4,-5,-3,-4,-10
1504250626178123,-1,12,21,6,-4,2,1,1
1504250626178123,-4,-10,-7,1,6,2,2,1
1504250626186623,-2,4,1,0,0,-1,-3,-1
1504250626186623,-4,8,2,-1,-10,-14,-7,-7
1504250626201622,2,-1,-5,0,3,2,-1,-2
1504250626201622,3,0,-3,2,2,7,2,3
1504250626202123,-9,3,-1,-1,-2,-6,-2,-7
1504250626202123,1,-6,3,4,5,6,2,1
1504250626216122,-1,-6,-7,-4,-1,-3,-4,-4
1504250626216122,-5,1,-1,-3,-7,-7,-3,-4
1504250626223120,9,-2,-6,-2,1,0,1,-1
1504250626223120,0,-2,9,2,6,8,1,-2
1504250626238118,-7,-3,-8,-4,1,4,0,4
1504250626238118,12,12,-4,-3,-13,-19,-7,-2
1504250626246619,-4,-15,0,5,7,11,3,12
1504250626246619,3,10,11,-2,-11,-16,-3,5
1504250626261117,-4,-7,1,-1,5,6,0,-11
1504250626261117,0,7,3,1,4,9,2,3
1504250626262119,3,-2,-4,-5,-7,-8,-1,1
1504250626262119,-8,-1,2,3,11,17,2,-5
1504250626275618,-5,-3,-11,-2,-12,-17,-4,-2
1504250626275618,3,-6,-5,-6,-5,-8,-6,2
1504250626283121,-1,6,0,2,-1,-4,-1,-3
1504250626283121,-3,-20,1,1,12,17,3,1
1504250626298116,2,7,-1,0,-2,-13,-3,3
1504250626298116,-9,-8,0,0,-2,-2,0,-6
1504250626306616,2,0,-6,-5,-2,1,0,-1
1504250626306616,1,4,-3,0,-5,-4,-1,-4
1504250626321615,4,1,2,-1,3,1,-1,-3
1504250626321615,0,-2,3,3,4,1,3,3
1504250626322115,6,2,-6,-2,1,-4,-2,6
1504250626322115,-23,-23,-4,-5,-11,-5,-4,-15
