timestamp,emg1,emg2,emg3,emg4,emg5,emg6,emg7,emg8
1504250268648872,-10,-9,-16,-23,-22,1,3,2
1504250268648872,13,11,7,21,-6,1,4,9
1504250268649372,19,13,-12,-6,-55,0,1,-2
1504250268649372,-19,-14,13,-1,8,1,0,-2
1504250268650371,19,-2,-30,-2,3,4,-1,42
1504250268650371,-8,27,39,-1,14,-5,-1,-7
1504250268654373,0,-40,-6,-1,-3,3,-8,-38
1504250268654373,41,56,16,2,-22,-4,0,0
1504250268660870,-76,-65,-13,-12,-13,-6,-2,-24
1504250268660870,8,1,-12,6,-100,-13,5,14
1504250268672372,39,27,-4,16,17,4,-10,4
1504250268672372,-58,-39,-3,-12,-54,1,0,-8
1504250268675870,23,21,16,7,9,11,1,-8
1504250268675870,9,38,-12,-5,-62,-10,15,-5
1504250268690869,-20,-47,2,-6,49,4,-24,-10
1504250268690869,-12,-5,-23,-2,18,-1,0,5
1504250268700868,2,9,7,-7,-62,-8,-8,-13
1504250268700868,-20,-6,-4,10,100,4,1,-4
1504250268707368,-2,15,7,0,-65,-5,7,-7
1504250268707368,-5,5,-10,-3,76,5,-8,9
1504250268720869,8,-40,-14,5,-22,-8,-2,-6
1504250268720869,23,33,21,-11,22,5,3,5
1504250268731366,-88,-46,-13,-3,-10,-4,8,0
1504250268731366,28,22,27,-3,-39,-11,-5,-3
1504250268768365,24,13,-1,13,7,2,-2,7
1504250268768365,-31,-15,-14,1,23,5,5,-3
1504250268769365,9,13,-12,-4,-6,-1,0,2
1504250268769365,14,-32,-14,-12,-47,5,6,0
1504250268770367,-26,-7,11,2,33,3,-3,-10
1504250268770367,31,10,-6,16,-16,-10,1,2
1504250268773364,7,-15,-1,8,63,2,-5,-1
1504250268773364,-10,12,8,11,-13,-3,3,10
1504250268780864,15,11,-17,-23,-77,-2,1,-7
1504250268780864,-9,-44,35,22,87,9,-5,-29
1504250268789863,-2,11,-13,-2,-32,-1,1,4
1504250268789863,16,23,25,9,33,-5,6,8
1504250268795863,24,-32,-8,0,36,-2,0,10
1504250268795863,-5,50,-11,-15,-16,0,-5,-10
1504250268810865,9,-31,-13,-10,-46,-7,-8,-8
1504250268810865,-14,-20,4,-7,28,7,1,-1
1504250268818362,5,13,-12,8,-16,-1,4,11
1504250268818362,17,22,4,-7,45,-5,4,4
1504250268827362,-3,12,18,11,14,3,1,10
1504250268827362,-58,-24,-13,-7,-37,2,-8,-31
1504250268840863,-7,-11,-30,-13,104,3,-1,-21
1504250268840863,13,4,4,10,-107,-13,-6,21
1504250268849860,-1,7,19,9,4,6,9,-5
1504250268849860,12,21,-24,-29,-14,-5,2,-1
1504250268855859,-24,-22,38,30,61,0,-17,-17
1504250268855859,-9,32,1,-22,-85,-2,15,4
1504250268870859,-15,-11,-12,-11,-3,-3,-4,-1
1504250268870859,4,-33,-18,17,74,2,-7,0
1504250268878358,13,61,23,-6,-73,-2,5,5
1504250268878358,-18,-76,-28,-17,-85,-3,-13,1
1504250268887359,-4,16,0,2,-11,5,9,-5
1504250268887359,16,27,5,7,11,6,9,15
1504250268900857,4,59,5,-7,-23,-8,-4,-3
1504250268900857,-5,9,70,24,74,9,-1,5
1504250268909856,-23,-102,-63,-23,-96,-15,-4,-7
1504250268909856,23,54,10,19,-4,-2,-7,3
1504250268915856,-9,3,-7,-19,-23,3,-4,-1
1504250268915856,-4,1,-12,11,-11,10,6,-4
1504250268930856,46,37,14,7,100,2,-1,17
1504250268930856,-8,-15,-25,-3,-42,-6,-5,-20
1504250268938354,-23,-12,6,-5,-62,-8,6,3
1504250268938354,17,-48,-15,-6,41,-2,-16,-3
1504250268947354,-54,1,13,-9,-22,-5,-23,-24
1504250268947354,3,-6,-13,-10,86,16,3,6
1504250268960853,34,29,-34,-9,-98,-7,7,6
1504250268960853,-36,-8,34,15,66,5,-3,-12
1504250268969855,14,9,-9,4,-37,3,23,21
1504250268969855,5,72,27,-17,-51,-12,1,9
1504250268975853,-46,-57,-27,0,-31,-6,-18,-3
1504250268975853,26,-28,31,-5,5,-2,-9,-1
1504250268990851,-11,-38,-25,-11,-3,-2,-10,-15
1504250268990851,-5,19,14,-6,-43,-4,3,-30
1504250268998352,-6,-7,1,26,114,13,5,-7
1504250268998352,21,45,-29,4,19,-3,-4,8
1504250269013350,0,8,19,-8,-20,-3,0,-36
1504250269013350,-19,-33,6,17,59,-1,2,-2
1504250269020851,28,3,-6,-7,-87,-6,0,3
1504250269020851,-10,-23,-9,6,58,25,1,-7
1504250269029850,11,51,8,-17,30,3,2,7
1504250269029850,11,-5,-4,-1,-43,-7,-6,8
1504250269035853,-16,-49,-8,10,72,4,-9,5
1504250269035853,-8,24,-8,0,-40,-6,19,1
1504250269050849,44,35,-17,-15,-31,-6,11,56
1504250269050849,-27,-37,7,4,-40,4,-4,-6
1504250269058349,11,9,19,-6,17,1,4,7
1504250269058349,-4,-1,-37,-26,-112,-18,3,-1
1504250269073347,-3,-25,13,26,5,-1,-8,-11
1504250269073347,-10,-9,-25,-23,-7,0,4,1
1504250269080846,-6,-41,27,9,72,-2,-4,4
1504250269080846,2,15,-28,-5,-56,-8,-2,3
1504250269089846,-9,33,17,11,-69,1,1,-4
1504250269089846,10,-18,-5,17,-42,-11,-5,22
1504250269095846,10,6,-19,-13,1,2,6,-7
1504250269095846,-58,3,-11,-14,-12,-12,-8,-8
1504250269110846,-1,-27,-1,0,41,-1,-8,-2
1504250269110846,5,-24,14,-4,-38,-9,7,-1
1504250269118344,18,32,-12,6,72,12,3,15
1504250269118344,5,-22,-9,-21,11,-3,-3,-2
1504250269133344,-3,36,2,5,-9,1,6,-2
1504250269133344,-7,-33,-10,-14,8,-3,-20,-18
1504250269140843,-16,18,-5,1,-91,-12,11,12
1504250269140843,-4,-50,-7,-1,-44,-1,-1,-1
1504250269149842,-49,-46,2,-7,-3,-1,2,3
1504250269149842,24,6,-10,7,45,5,-9,-16
1504250269155842,-8,0,-9,-14,-44,3,2,2
1504250269155842,14,43,35,12,67,1,2,-9
1504250269170841,43,-3,-4,-2,-68,-12,-2,11
1504250269170841,4,27,0,-13,-35,6,3,5
1504250269178340,-2,-52,-23,5,41,5,-6,-7
1504250269178340,1,34,28,3,-2,1,3,15
1504250269193340,24,4,6,6,-16,-2,-5,-3
1504250269193340,-65,-45,-5,-2,52,1,0,-11
1504250269200840,6,36,10,-10,-10,1,-7,-12
1504250269200840,12,-39,15,12,-12,1,2,-3
1504250269209840,-20,-22,-21,-9,55,9,6,-9
1504250269209840,97,126,26,9,-8,2,-3,25
1504250269215838,-100,-110,-21,-7,12,-12,-8,-30
1504250269215838,11,25,-29,-27,-68,-1,-10,16
1504250269230837,-7,21,22,19,93,18,1,-4
1504250269230837,6,-9,-10,-2,-26,-10,9,4
1504250269238340,38,53,26,-7,-85,1,-8,12
1504250269238340,6,-17,-35,-10,42,9,-7,-6
1504250269253337,5,63,-5,19,-18,-6,-5,-6
1504250269253337,-48,-115,13,13,-3,5,8,13
1504250269260837,24,26,-7,-7,8,-1,-4,8
1504250269260837,13,55,47,15,79,5,12,9
1504250269269837,-61,-12,-18,-41,-60,-10,-10,-9
1504250269269837,5,5,-6,21,6,-2,-3,-18
1504250269275841,-1,29,20,19,-13,8,17,-1
1504250269275841,22,24,-53,-5,3,-1,-12,5
1504250269290833,-29,-85,15,14,6,-7,-6,-22
1504250269290833,27,46,12,-24,-34,0,-3,-3
1504250269298334,-11,-32,5,1,-6,4,3,-3
1504250269298334,9,40,-28,4,50,-1,-2,-5
1504250269313334,37,83,36,1,3,4,3,84
1504250269313334,-29,-111,-54,-3,-31,-6,-10,-37
1504250269320834,-4,45,37,3,-19,-3,-1,-9
1504250269320834,-14,-48,4,1,3,-2,6,-3
1504250269329833,-6,-38,-34,-13,-13,-3,-6,-8
1504250269329833,12,41,35,-7,-18,-17,-2,5
1504250269343831,18,29,21,16,80,-1,-6,-3
1504250269343831,-33,-37,-3,-3,-81,-15,0,-14
1504250269350831,45,1,2,8,37,10,9,-11
1504250269350831,-7,54,-13,11,3,-2,1,10
1504250269358330,-30,-53,-24,-18,-85,-8,2,-14
1504250269358330,9,1,69,7,-10,-1,-3,1
1504250269373331,22,39,-18,2,-75,-6,5,5
1504250269373331,-20,-11,26,-7,-15,11,-8,0
1504250269380829,2,49,8,12,43,7,0,-11
1504250269380829,1,-31,-29,-10,-1,6,0,4
1504250269389828,-17,-16,7,8,-16,-1,4,-26
1504250269389828,-8,20,19,3,1,-10,0,-1
1504250269403830,25,36,1,-7,-30,-4,-1,14
1504250269403830,-26,-46,15,-4,-6,-9,-1,-4
1504250269410828,20,-2,-12,6,68,10,0,18
1504250269410828,-12,-20,-11,6,-6,5,5,7
1504250269418328,-41,-81,-31,-8,15,4,22,-3
1504250269418328,12,76,12,-5,-70,-29,-43,1
1504250269433327,-8,-36,-2,-9,12,-10,-28,-20
1504250269433327,9,14,-2,1,26,1,0,-25
1504250269440830,-7,-9,-1,-3,-35,0,15,18
1504250269440830,7,17,-17,-10,-23,15,25,4
1504250269449826,-12,-14,42,-5,-60,-7,3,16
1504250269449826,0,13,-32,-10,11,0,8,6
1504250269463825,59,43,20,16,-40,-11,-18,-5
1504250269463825,-24,-19,-19,8,55,1,-3,-6
1504250269470825,30,27,-30,-21,-95,-19,-1,-2
1504250269470825,-21,-47,-2,15,62,11,6,-1
1504250269478324,26,33,3,-10,-31,-4,-2,13
1504250269478324,-39,-35,1,4,0,4,8,-11
1504250269493322,22,17,-2,1,-5,-5,-10,-53
1504250269493322,-25,86,25,-16,-13,-1,-11,-1
1504250269500827,-41,-121,-15,3,-2,-7,-4,-1
1504250269500827,-7,43,-8,0,6,6,5,-14
1504250269509824,-12,25,31,15,89,12,20,4
1504250269509824,12,-23,-27,-26,-96,-13,-11,4
1504250269523821,18,54,19,-5,-23,7,-12,-14
1504250269523821,23,1,5,30,16,0,4,4
1504250269530820,-48,-27,-7,-17,-30,7,1,-10
1504250269530820,30,17,7,17,9,1,-1,6
1504250269538320,-32,-6,-10,-14,-51,-18,-18,-15
1504250269538320,10,-23,13,4,-64,-9,5,5
1504250269553320,2,19,-8,1,53,-1,-8,13
1504250269553320,26,-4,4,5,20,-4,4,2
1504250269560820,35,24,-30,-21,-17,-6,3,-4
1504250269560820,-50,-32,21,12,42,-11,-17,-32
1504250269569821,17,-8,16,1,77,4,-5,9
1504250269569821,-2,-4,-3,-7,-28,3,4,15
1504250269592317,66,80,-6,8,18,-5,4,11
1504250269592317,-36,-77,-6,-8,-13,10,9,4
1504250269593817,9,77,-19,-10,-26,0,3,12
1504250269593817,-22,-112,1,19,69,3,-4,-6
1504250269598318,-25,10,-2,-2,9,-6,0,-6
1504250269598318,26,49,5,-16,-30,-7,-4,8
1504250269613317,-4,16,-7,20,8,-1,-5,-19
1504250269613317,-25,-15,-10,-14,-48,0,4,5
1504250269620816,12,3,-4,-7,15,6,0,5
1504250269620816,34,10,-5,-7,51,7,7,50
1504250269629815,-67,-43,-13,-18,-63,-1,-11,-12
1504250269629815,19,6,-13,-16,-55,-3,-1,1
1504250269643815,-13,-60,28,12,20,6,2,-4
1504250269643815,36,47,1,-19,-61,3,7,1
1504250269658813,16,5,13,10,-56,2,0,-6
1504250269658813,-10,3,-17,4,97,-5,1,7
1504250269659813,-2,19,-5,-9,36,6,3,6
1504250269659813,-71,-56,-6,-7,-38,-9,-2,-9
1504250269673313,12,-14,-7,-7,21,3,8,5
1504250269673313,-8,-21,6,5,-4,3,-4,9
1504250269680813,9,5,34,-2,-30,-6,6,10
1504250269680813,47,54,-13,6,78,7,-9,-3
1504250269689812,-37,4,6,9,-22,-7,-2,0
1504250269689812,9,5,7,-13,-70,-5,0,-12
1504250269703816,-1,8,-18,10,37,3,-5,20
1504250269703816,5,-10,-8,-1,-88,-4,7,8
1504250269710810,1,24,32,5,71,7,-6,-13
1504250269710810,9,4,-29,-17,-56,-7,-1,-1
1504250269718311,-15,10,8,6,0,0,-14,-20
1504250269718311,-3,-9,-11,-1,10,-2,0,-23
1504250269733310,35,15,-19,6,-92,-7,6,22
1504250269733310,0,19,25,14,111,10,-1,1
1504250269740810,-3,-22,-19,-13,77,10,2,-2
1504250269740810,12,15,-6,8,1,-7,0,4
1504250269755808,-22,-59,1,-9,-1,5,-1,-19
1504250269755808,-2,-20,7,10,-11,-4,-4,-15
1504250269763308,-6,3,3,2,64,11,2,-15
1504250269763308,9,27,-8,6,-1,-2,-6,-28
1504250269778807,-52,-39,0,1,18,-6,-1,11
1504250269778807,42,23,-13,-5,-40,-5,-3,3
1504250269779809,-22,1,-7,3,-21,-9,5,1
1504250269779809,-21,-32,1,-4,14,8,10,-9
1504250269793306,14,-29,19,7,-37,-3,-23,-9
1504250269793306,12,29,-22,-23,65,2,-1,1
1504250269800808,20,-6,18,18,-88,-7,-3,-2
1504250269800808,-55,-1,-14,4,113,4,-4,2
1504250269815806,7,-10,-28,-13,-46,-11,-2,2
1504250269815806,29,50,4,-3,7,4,-1,6
1504250269823304,-13,-22,23,-12,-22,-2,-3,-2
1504250269823304,7,2,14,20,58,-1,6,2
1504250269839306,17,24,-5,-19,1,-10,-3,1
1504250269839306,1,-16,12,6,-57,-12,-17,-13
1504250269839812,-47,-11,-47,2,-5,-1,2,-9
1504250269839812,58,25,68,5,-7,3,2,15
1504250269853303,-17,11,-43,-12,8,-10,1,-2
1504250269853303,-9,30,5,-4,-63,-2,10,4
1504250269860802,10,-18,-2,3,-62,8,9,30
1504250269860802,21,11,-18,-13,-4,0,-16,7
1504250269875801,22,-4,3,11,14,8,15,9
1504250269875801,-29,20,29,10,-14,4,-16,-26
1504250269883301,7,-81,-40,-12,-31,-4,5,-4
1504250269883301,-28,4,-17,-23,-47,-9,-7,-3
1504250269898799,28,27,11,18,87,10,-4,2
1504250269898799,-59,-18,6,0,13,3,2,4
1504250269899802,1,-25,-3,-5,-1,0,-3,0
1504250269899802,24,10,2,-5,-55,0,-6,-2
1504250269913299,-23,-45,5,3,13,-11,2,-7
1504250269913299,1,43,11,-14,-27,2,13,13
1504250269920798,23,36,2,3,33,3,1,4
1504250269920798,7,-2,10,11,-13,-3,2,4
1504250269935800,-1,-6,-14,-9,-33,-6,-15,-10
1504250269935800,1,-12,-25,6,22,5,-2,-8
1504250269943298,-5,1,24,-21,-39,-8,-4,-29
1504250269943298,0,-11,-26,-10,-11,1,7,0
1504250269958797,5,20,-6,9,-60,-1,6,4
1504250269958797,22,64,32,-2,-9,6,-1,12
1504250269959796,-58,-63,-22,4,4,4,0,-16
1504250269959796,4,11,2,-3,-28,-2,1,9
1504250269973296,1,25,16,-16,-29,2,2,4
1504250269973296,15,-69,-33,16,4,-4,-3,-19
1504250269980795,5,43,2,-1,89,1,-1,8
1504250269980795,3,-4,9,5,-50,-3,-11,-15
1504250269995795,-30,-39,-7,-14,-11,0,-4,10
1504250269995795,-9,6,4,0,-13,-7,1,-1
1504250270003298,1,24,-2,11,-43,-5,-1,3
1504250270003298,-3,-69,-8,18,72,6,-2,-7
1504250270018795,8,26,3,0,25,1,7,6
1504250270018795,2,-21,1,1,30,-9,-5,2
1504250270019794,0,13,-4,-5,-32,-3,-5,-10
1504250270019794,3,11,-15,-11,-40,-9,-2,-6
1504250270033293,0,40,10,5,15,7,15,36
1504250270033293,-2,-86,-23,1,25,1,3,1
1504250270040792,10,27,13,-10,-41,-6,-19,-17
1504250270040792,-23,18,6,-1,46,-7,-4,2
1504250270055792,14,-32,-32,-3,30,4,4,-18
1504250270055792,-28,10,-12,18,-29,-1,9,2
1504250270063291,1,10,37,8,25,6,0,19
1504250270063291,27,-29,-5,5,-7,6,8,6
1504250270078793,22,17,11,-10,-89,-13,-11,-9
1504250270078793,-55,-9,-3,9,55,-3,-10,-17
1504250270079794,20,-1,-18,-7,-3,-5,12,-3
1504250270079794,-2,13,-5,-1,-33,0,-5,16
1504250270093288,11,-9,14,0,25,-2,-4,-34
1504250270093288,30,17,7,-9,-31,-4,3,3
1504250270100789,-15,-10,-18,-6,43,6,-4,5
1504250270100789,-11,31,-7,3,-15,0,3,-21
1504250270115789,-5,-66,8,1,5,1,1,-4
1504250270115789,3,51,7,-16,-20,-3,1,5
1504250270123287,-13,-46,-18,6,75,5,-4,9
1504250270123287,9,23,9,-1,2,5,-2,-10
1504250270138787,-11,15,-10,-2,5,1,4,1
1504250270138787,3,-9,2,-2,-6,-1,3,1
1504250270139788,-9,7,4,0,-42,-7,-2,-5
1504250270139788,12,23,-11,-12,3,-2,-2,5
1504250270153287,-25,-52,22,11,27,6,0,0
1504250270153287,31,41,-2,-11,-37,-2,-1,18
1504250270160785,5,9,-2,-12,-51,-8,-7,26
1504250270160785,15,15,-8,-17,-66,-3,1,-2
1504250270175785,11,9,2,14,61,15,18,8
1504250270175785,-11,-33,-16,-1,-19,-6,-20,-10
1504250270183284,14,6,2,13,18,6,-6,-13
1504250270183284,1,-8,7,-14,-13,-8,1,5
1504250270198782,-15,31,-17,-9,7,2,-12,5
1504250270198782,11,-9,8,-2,-5,0,19,13
1504250270199783,-19,1,-1,30,87,6,-8,-3
1504250270199783,12,43,-16,-9,-86,-9,-1,-5
1504250270213282,-26,-97,23,8,37,1,-6,-20
1504250270213282,4,19,-14,-9,95,-6,-12,-1
1504250270220782,-3,2,7,8,62,9,7,-7
1504250270220782,30,17,-6,19,-15,1,10,15
1504250270235781,-66,-36,-15,2,-7,-5,-20,-26
1504250270235781,25,-22,9,-9,-46,6,8,-3
1504250270243279,51,72,-9,-7,-46,-10,1,52
1504250270243279,-63,-92,42,10,67,5,1,-8
1504250270258780,34,52,-24,-13,-14,-8,-1,6
1504250270258780,0,14,11,-5,-34,2,-5,1
1504250270259779,-1,11,-3,-8,-36,-4,8,-17
1504250270259779,3,-16,-10,0,69,12,-6,9
1504250270273278,14,41,19,17,-21,-8,2,15
1504250270273278,-21,-8,-14,-15,-72,1,-5,-17
1504250270280778,-6,-24,21,13,44,7,0,-17
1504250270280778,-10,-4,-15,-10,-57,-8,1,4
1504250270295777,-3,-22,16,-3,-15,0,3,-4
1504250270295777,11,41,-13,6,50,16,7,9
1504250270303282,2,-40,-4,-8,-9,-4,-4,-3
1504250270303282,-22,-45,4,3,-13,-6,-5,-11
1504250270318277,-4,33,-13,-2,-5,-5,0,-5
1504250270318277,11,2,-3,9,13,-2,-3,0
1504250270326275,1,-1,8,-13,-64,-14,-7,-34
1504250270326275,-4,-34,29,7,42,7,3,-5
1504250270333277,54,40,-42,-13,-44,-5,-1,18
1504250270333277,-6,12,18,-8,-13,-9,-14,-18
1504250270340779,-15,-24,2,16,9,-1,3,-6
1504250270340779,0,5,-18,-11,-9,0,1,-1
1504250270355773,30,12,-6,-10,6,4,5,9
1504250270355773,-31,-40,5,22,-14,-6,-6,-2
1504250270363272,2,30,2,-19,2,0,-3,10
1504250270363272,-15,-26,-11,4,2,-1,-6,0
1504250270378272,-6,34,2,-14,-68,-5,4,2
1504250270378272,-69,-77,-8,11,42,9,-3,-10
1504250270386272,12,25,22,-16,-86,-19,-2,2
1504250270386272,-1,17,-6,39,89,10,-2,2
1504250270393271,30,0,6,-1,5,-5,-4,-13
1504250270393271,-24,24,-16,-11,-1,-3,4,9
1504250270400770,-1,-29,18,1,-20,1,2,-2
1504250270400770,32,3,-23,-2,0,0,2,0
1504250270423769,-16,-30,25,9,78,7,-7,-6
1504250270423769,23,17,5,-13,-29,-3,4,2
1504250270424770,12,15,-17,1,37,-9,5,5
1504250270424770,28,103,14,-14,-7,4,-3,3
1504250270438268,-30,-106,-10,1,-17,0,2,0
1504250270438268,-1,6,-12,-2,13,-1,-3,-1
1504250270446269,-4,-6,-7,8,25,8,3,-4
1504250270446269,-10,-6,-4,-11,44,-2,-4,-5
1504250270453269,-19,28,-12,-4,-10,-2,-3,-23
1504250270453269,18,-3,20,18,69,9,-1,20
1504250270460768,14,-9,-11,-16,-51,-4,-7,-3
1504250270460768,-17,-19,-24,1,-13,-9,-4,-10
1504250270475767,9,26,19,15,-4,-1,-2,-2
1504250270475767,26,18,-3,-1,-13,2,5,2
1504250270483266,6,25,20,-9,-14,4,7,7
1504250270483266,-7,-27,-10,-9,-19,-4,-5,6
1504250270498267,5,10,-12,-8,-49,-6,-1,2
1504250270498267,-2,-18,6,5,-17,-10,3,-6
1504250270506766,1,13,-11,5,-64,-9,-2,10
1504250270506766,1,18,21,-14,16,7,-1,-10
1504250270521264,-5,27,2,11,-14,6,12,19
1504250270521264,1,-52,-2,-3,-15,6,-7,-4
1504250270522264,-7,-6,-14,11,-9,-3,-5,-39
1504250270522264,-21,-6,9,1,-19,-4,1,-11
1504250270535767,3,21,-9,-15,-69,-16,-5,-3
1504250270535767,48,47,7,-4,106,17,10,9
1504250270543262,-114,-74,0,-1,21,0,1,-16
1504250270543262,39,2,-15,-19,-87,-9,-14,7
1504250270558262,20,59,26,28,78,12,12,11
1504250270558262,-69,-21,-8,-1,-37,-12,-19,-32
1504250270573760,9,-35,-15,-16,-13,-2,-1,4
1504250270573760,0,44,17,33,78,9,7,2
1504250270581260,3,-21,-10,-8,-45,-3,5,10
1504250270581260,13,13,8,-1,75,1,6,13
1504250270582260,24,-3,8,5,-38,-1,-14,10
1504250270582260,-40,-56,-9,-16,-53,-5,-1,-8
1504250270595760,13,17,-5,2,29,3,5,-2
1504250270595760,-1,-39,25,8,-19,-1,-13,13
1504250270603261,-2,43,-16,-3,72,9,2,-7
1504250270603261,-1,-9,-5,-5,-26,-18,-17,-29
1504250270618259,-32,-41,0,-4,2,6,3,4
1504250270618259,-35,19,-11,15,-79,-9,2,-19
1504250270626258,15,-1,-9,-6,-8,3,7,18
1504250270626258,19,84,9,8,41,4,14,19
1504250270641257,-21,-100,-15,0,31,2,-24,-21
1504250270641257,-17,5,-13,-14,-36,-5,2,-10
1504250270642257,13,19,-21,-9,-40,-1,-4,-4
1504250270642257,-10,-22,12,23,10,2,6,-3
1504250270655756,33,58,33,-13,-62,-8,-9,2
1504250270655756,0,-37,-22,-5,18,0,-3,10
1504250270663257,-18,-10,6,5,0,6,4,-4
1504250270663257,39,49,-10,-32,-105,-14,5,26
1504250270678255,-11,-29,0,7,63,5,2,2
1504250270678255,38,64,6,-5,-21,-3,-4,7
1504250270686254,-44,-85,-42,16,42,-5,-6,-15
1504250270686254,-31,22,3,-7,-40,1,3,8
1504250270701254,9,9,-3,0,52,5,3,-8
1504250270701254,-9,19,-21,-10,-29,-6,-4,-3
1504250270702256,-43,20,43,-10,-31,-9,-3,6
1504250270702256,39,-23,1,1,71,-3,-11,-14
1504250270715752,2,-6,-20,-10,-44,-11,-3,23
1504250270715752,-15,29,14,15,93,16,3,-6
1504250270723253,41,-22,-3,-3,9,-3,-4,4
1504250270723253,1,-2,-9,6,-36,-5,-6,-8
1504250270738252,-20,-11,24,-8,15,3,-7,-21
1504250270738252,12,12,-11,-3,38,-5,9,10
1504250270746251,35,-5,-2,2,26,7,-1,12
1504250270746251,-42,-22,-7,-5,10,1,-6,-7
1504250270761250,19,17,-14,-7,-22,-3,-6,3
1504250270761250,4,-14,38,-1,-110,-16,7,6
1504250270762249,-26,-21,-15,-3,57,4,-4,-15
1504250270762249,17,-17,-8,-1,-5,0,10,7
1504250270775752,13,15,8,-1,18,4,5,2
1504250270775752,5,-19,-10,-17,-30,-3,1,-2
1504250270783249,22,68,6,18,-21,-7,3,22
1504250270783249,-11,-35,-23,-8,-22,5,2,-1
1504250270798247,-38,-22,-4,13,-12,2,-1,0
1504250270798247,11,30,13,0,-16,-4,-5,-10
1504250270806247,-10,-33,-26,-13,50,0,6,-1
1504250270806247,6,9,20,22,102,13,-1,6
1504250270821247,20,38,-31,3,-19,-4,4,4
1504250270821247,-4,1,6,-11,1,0,-2,-9
1504250270822246,1,5,33,5,-46,-5,4,0
1504250270822246,10,19,16,-6,-18,0,4,7
1504250270835749,-25,-10,-9,0,15,0,-3,-9
1504250270835749,1,-25,-13,9,-49,-2,3,9
1504250270843245,-4,44,10,-3,-22,-19,-3,-3
1504250270843245,-10,-9,-12,-15,-36,2,7,5
1504250270858244,-9,-50,29,8,-53,-12,-2,0
1504250270858244,-4,-14,-20,1,27,4,-5,2
1504250270866744,9,13,14,-1,-49,10,1,-3
1504250270866744,2,10,-13,14,3,-6,-2,2
1504250270881243,-7,2,-4,-11,9,4,6,-3
1504250270881243,27,16,-11,2,18,2,10,1
1504250270882244,-8,-49,-11,0,-9,1,-7,4
1504250270882244,-1,6,-8,-18,-6,-1,-3,-12
1504250270895743,21,-3,31,1,-9,-2,-3,-22
1504250270895743,31,16,39,-1,-20,-11,-7,-7
1504250270903241,-1,0,-24,0,41,6,9,4
1504250270903241,13,13,-2,1,32,1,-8,-1
1504250270919741,-19,2,3,-2,-8,1,26,11
1504250270919741,-16,5,-6,8,30,2,-30,-18
1504250270926740,11,30,-20,-19,-31,-6,-1,7
1504250270926740,0,-44,36,10,-59,-2,-4,-19
1504250270941241,7,34,-11,-26,-25,-5,2,11
1504250270941241,8,-7,-8,23,22,4,6,18
1504250270942240,-3,-2,-1,-4,-113,-15,-6,-2
1504250270942240,6,7,-8,1,8,9,-3,8
1504250270955739,-2,-2,-3,-3,96,11,-10,-9
1504250270955739,-10,-26,21,-15,-62,-4,13,12
1504250270963238,-2,-9,-2,2,8,-3,-10,-12
1504250270963238,-21,-31,-12,-9,-53,-3,3,-18
1504250270978237,1,-12,21,10,51,4,-11,-4
1504250270978237,-4,-2,-16,1,-9,1,2,-5
1504250270985738,-8,21,2,19,74,15,15,1
1504250270985738,22,42,28,-7,-10,-4,-6,8
1504250271001737,-19,-60,-56,-11,-48,-2,-6,5
1504250271001737,-7,-44,-25,-8,5,-4,-4,-8
1504250271002237,37,27,6,-3,13,-1,-3,-12
1504250271002237,-11,44,6,-7,-16,-2,7,17
1504250271015735,-28,-74,-34,11,-1,-3,-6,-17
1504250271015735,15,24,2,-4,5,0,7,9
1504250271031234,10,-2,6,1,9,3,0,8
1504250271031234,-6,11,-12,2,-20,-19,-1,-6
1504250271038235,8,15,12,-7,-40,-4,-8,5
1504250271038235,-7,-25,-6,-7,-33,-2,-1,-8
1504250271045734,-6,20,4,22,39,7,-2,2
1504250271045734,5,-20,-2,-7,14,-8,-3,4
1504250271061233,-9,3,4,3,-11,-6,-2,-7
1504250271061233,26,31,1,-11,-25,-7,3,1
1504250271062234,-20,-24,-3,-1,89,16,2,19
1504250271062234,-15,-22,-7,12,26,5,5,5
1504250271075733,22,59,27,-4,15,3,-4,-9
1504250271075733,-12,-22,-42,-10,-3,-1,0,11
1504250271083232,-2,-18,26,16,-25,-13,-13,-11
1504250271083232,6,-39,8,6,33,10,4,-1
1504250271098230,13,32,-9,-3,-18,-5,4,4
1504250271098230,-13,17,-20,-6,25,1,-1,-7
1504250271105730,-36,-60,40,0,-16,1,3,-12
1504250271105730,11,29,-3,2,-4,-1,-2,4
1504250271121230,-8,2,-12,-2,-9,-2,-6,-2
1504250271121230,-5,-15,11,10,1,10,5,-3
1504250271122231,14,7,-8,-11,-50,-10,0,1
1504250271122231,-10,28,0,0,72,10,-7,1
1504250271135733,11,-32,-1,-4,-30,2,9,28
1504250271135733,-13,-1,0,-7,-13,-1,-1,-3
1504250271143228,2,21,-14,-1,-24,-19,-11,-8
1504250271143228,4,-12,6,-7,-75,-9,1,-5
1504250271158227,-2,20,-22,13,80,1,-6,-7
1504250271158227,-4,2,21,-12,-66,-7,2,-2
1504250271165728,23,22,-7,16,86,0,-1,1
1504250271165728,-71,-43,-11,-8,-53,-7,-5,-19
1504250271181225,14,32,12,9,-3,-1,1,0
1504250271181225,15,-35,-22,-30,-11,-1,-5,3
1504250271182226,-7,49,12,7,-32,-7,-2,-5
1504250271182226,5,-9,1,-2,5,3,0,6
1504250271195725,-4,20,40,11,5,-5,2,7
1504250271195725,-44,-62,-12,-4,10,-3,-8,-17
1504250271203227,40,24,2,-16,-15,11,9,7
1504250271203227,-14,-3,5,1,26,-2,-2,0
1504250271218225,21,39,-3,0,-34,-6,-3,7
1504250271218225,7,-15,-9,12,-15,0,10,-7
1504250271225724,-11,-12,-10,-15,10,-2,-13,-6
1504250271225724,15,-2,-4,2,-29,0,4,2
1504250271240723,-9,14,6,-8,12,1,2,-5
1504250271240723,11,21,5,-5,-19,-7,1,47
1504250271248722,-6,2,-10,5,-26,6,2,2
1504250271248722,9,-4,-2,11,22,7,7,7
1504250271255722,-50,-26,-11,-30,-67,-13,-9,-9
1504250271255722,-19,-35,-8,28,38,-1,-6,-17
1504250271263221,6,-4,-12,-21,-32,-1,-1,-3
1504250271263221,11,16,37,1,9,1,-6,1
1504250271278221,11,10,-9,3,-34,-2,2,-2
1504250271278221,-1,17,12,3,32,6,-3,-7
1504250271285721,-7,-15,-9,-13,1,0,3,1
1504250271285721,9,37,-13,-6,4,0,2,-3
1504250271300719,4,-14,24,3,-46,-10,-4,1
1504250271300719,-34,9,1,2,36,7,-9,-15
1504250271309219,30,40,-6,13,48,1,7,49
1504250271309219,15,-4,26,-6,-37,-13,-7,-8
1504250271315719,-5,6,-7,7,22,12,5,-1
1504250271315719,32,22,0,-8,-20,-4,-7,2
1504250271323217,-16,-34,-4,1,6,1,-1,-19
1504250271323217,4,9,-17,-8,-16,1,4,3
1504250271338217,0,-13,3,-9,27,0,4,5
1504250271338217,10,43,2,28,27,1,1,0
1504250271345716,-30,-69,26,1,-86,-9,-6,-16
1504250271345716,15,7,-28,-21,18,-5,-8,-3
1504250271360717,13,-49,7,22,35,12,13,2
1504250271360717,19,11,-9,17,0,6,-2,-8
1504250271368716,9,22,28,-8,-20,0,-4,-2
1504250271368716,-18,-20,-8,-4,-16,-4,-4,-2
1504250271383715,21,26,-2,11,75,3,1,13
1504250271383715,18,34,9,-13,-37,-2,3,7
1504250271384715,-18,-25,-9,-3,72,1,-4,-9
1504250271384715,11,5,-27,-2,-61,-11,-3,7
1504250271398213,-15,31,44,-6,-28,3,2,-14
1504250271398213,-8,-45,-10,17,43,-5,-6,-7
1504250271405713,2,17,-8,1,24,6,1,-8
1504250271405713,-16,-26,-27,-7,15,0,-5,-5
1504250271420713,-8,9,0,7,-21,-6,-2,-4
1504250271420713,-12,-9,16,-16,-19,-9,-7,-10
1504250271428712,0,-16,-24,-6,-26,2,-4,-5
1504250271428712,-5,-11,0,9,13,5,0,-4
1504250271443712,10,-11,-26,-10,-14,2,-1,-5
1504250271443712,5,16,-2,-19,14,-2,4,9
1504250271444711,-2,22,28,19,32,-12,-1,1
1504250271444711,14,-2,13,-9,41,10,4,1
